"Nominal strain Torsion"	"Standard torque absolute Torsion"
"°"	"Nm"
-3.72783e-007	5.55687
-7.45566e-007	5.55914
-3.73037e-007	5.56311
0.000510796	5.57052
0.00178491	5.58096
0.00485192	5.5942
0.0120236	5.61129
0.0219723	5.63339
0.0327145	5.65902
0.044006	5.69003
0.0565182	5.72494
0.0711056	5.76327
0.0864864	5.8038
0.102356	5.84628
0.118957	5.89047
0.135559	5.93539
0.152282	5.98153
0.168884	6.02719
0.184997	6.07357
0.20111	6.11947
0.21698	6.1661
0.233093	6.21273
0.249206	6.2601
0.265564	6.30648
0.28302	6.35336
0.300476	6.40121
0.318054	6.44857
0.334777	6.49594
0.351623	6.54379
0.368713	6.59091
0.385437	6.63778
0.402282	6.68417
0.418884	6.72958
0.434753	6.77548
0.450622	6.82113
0.466491	6.86654
0.48236	6.91244
0.49884	6.95834
0.516174	7.00424
0.533874	7.05111
0.55072	7.09823
0.567932	7.14584
0.585266	7.19394
0.602722	7.24154
0.619568	7.28891
0.636779	7.33603
0.653381	7.38241
0.669983	7.4288
0.686462	7.47494
0.702575	7.52084
0.7182	7.56723
0.734314	7.61313
0.750915	7.65927
0.768371	7.70565
0.785705	7.75229
0.802673	7.79867
0.819763	7.84555
0.836364	7.89242
0.852478	7.93881
0.868957	7.98446
0.884826	8.03012
0.900451	8.07577
0.91632	8.12045
0.932678	8.16562
0.949035	8.21103
0.965149	8.25668
0.981506	8.30258
0.998474	8.34799
1.01581	8.39438
1.03351	8.44101
1.05084	8.48764
1.06805	8.53378
1.08441	8.58065
1.10028	8.6268
1.11615	8.6727
1.13202	8.71786
1.14838	8.76327
1.16449	8.80893
1.18072	8.85458
1.19708	8.90023
1.21368	8.94638
1.23053	8.99252
1.24774	9.03891
1.26544	9.08578
1.28302	9.13192
1.30048	9.1788
1.31732	9.22494
1.33405	9.27133
1.3504	9.31723
1.36676	9.36288
1.38287	9.40805
1.39899	9.45346
1.41534	9.49813
1.43207	9.54306
1.44842	9.58822
1.46503	9.63363
1.48114	9.67904
1.4986	9.72421
1.51593	9.76938
1.5329	9.81454
1.5495	9.85995
1.56586	9.90487
1.58173	9.95004
1.59808	9.99521
1.61456	10.0404
1.63092	10.0855
1.64752	10.1307
1.66388	10.1761
1.68085	10.2223
1.69745	10.2686
1.71429	10.315
1.73175	10.3614
1.74969	10.4076
1.76764	10.4535
1.78497	10.4991
1.80109	10.5448
1.81696	10.5902
1.83258	10.6353
1.84869	10.6805
1.86505	10.7252
1.88153	10.7694
1.89813	10.8145
1.91473	10.8602
1.93134	10.9056
1.94781	10.9513
1.96466	10.9967
1.98285	11.0423
2.00055	11.0875
2.01764	11.1322
2.03375	11.1768
2.04962	11.222
2.06573	11.2667
2.08185	11.3114
2.09833	11.3563
2.11444	11.401
2.13104	11.4464
2.14813	11.4918
2.16559	11.5379
2.18243	11.5843
2.19916	11.6309
2.21649	11.6771
2.23419	11.723
2.25165	11.7684
2.268	11.8141
2.28339	11.859
2.2995	11.9041
2.31561	11.9493
2.33173	11.9942
2.34833	12.0389
2.36578	12.0831
2.38287	12.1283
2.40008	12.1742
2.41693	12.2198
2.4339	12.2655
2.45099	12.3109
2.46893	12.3558
2.48651	12.4002
2.50299	12.4444
2.5191	12.4889
2.53448	12.533
2.5506	12.577
2.56671	12.6204
2.58331	12.6644
2.59967	12.7081
2.61664	12.7525
2.63373	12.7977
2.6507	12.8429
2.66705	12.8878
2.68414	12.9329
2.70209	12.9774
2.71979	13.0221
2.73688	13.0665
2.75299	13.1107
2.76886	13.1549
2.78497	13.1991
2.80109	13.2428
2.81757	13.287
2.83368	13.3309
2.85004	13.3753
2.86688	13.4203
2.88385	13.4649
2.90045	13.5099
2.9173	13.5545
2.93451	13.599
2.95184	13.6434
2.96881	13.6876
2.98492	13.731
3.00079	13.775
3.01666	13.8184
3.03278	13.8624
3.04938	13.9056
3.06586	13.9493
3.08197	13.993
3.09882	14.0377
3.11566	14.0821
3.13263	14.127
3.14947	14.172
3.16693	14.2166
3.18402	14.2608
3.20074	14.305
3.2171	14.349
3.23248	14.3934
3.24835	14.4376
3.26471	14.4813
3.28131	14.5247
3.29767	14.568
3.31439	14.6119
3.33075	14.6558
3.34735	14.7003
3.3642	14.7445
3.38165	14.7887
3.3985	14.8324
3.41522	14.8766
3.43182	14.9203
3.44842	14.964
3.46478	15.0079
3.48151	15.0514
3.49811	15.0948
3.51471	15.138
3.53143	15.1815
3.54828	15.2249
3.56537	15.2686
3.58209	15.3119
3.59894	15.3551
3.61615	15.3985
3.63324	15.4415
3.65021	15.4842
3.66681	15.5272
3.68243	15.5704
3.69879	15.6129
3.71539	15.6561
3.73199	15.6993
3.74847	15.7423
3.76508	15.7855
3.78192	15.8292
3.79889	15.8729
3.81573	15.9168
3.8327	15.96
3.85004	16.0033
3.86774	16.0472
3.88434	16.0909
3.90021	16.1339
3.91632	16.1766
3.93268	16.2198
3.94916	16.2625
3.96504	16.305
3.98115	16.3477
3.99775	16.3911
4.01411	16.4343
4.03096	16.478
4.04768	16.5213
4.06477	16.5647
4.08247	16.6084
4.09993	16.6516
4.11677	16.6946
4.13362	16.7378
4.14973	16.781
4.1656	16.8242
4.18171	16.867
4.19819	16.9097
4.21479	16.9529
4.23139	16.9956
4.24836	17.0386
4.26521	17.0821
4.28242	17.1258
4.29902	17.1687
4.31587	17.2114
4.33308	17.2542
4.34968	17.2971
4.36579	17.3391
4.38215	17.3811
4.39802	17.4239
4.41438	17.4666
4.43086	17.5088
4.44722	17.5515
4.46406	17.5945
4.48127	17.6377
4.49836	17.6812
4.51582	17.7246
4.53266	17.7686
4.55012	17.8125
4.5677	17.8557
4.58515	17.8989
4.60237	17.9419
4.61921	17.9851
4.63581	18.0279
4.65254	18.0706
4.66914	18.1131
4.68574	18.1553
4.70234	18.1975
4.71882	18.2395
4.73493	18.282
4.75105	18.3242
4.76789	18.3667
4.78486	18.4082
4.80171	18.4507
4.8188	18.4927
4.83552	18.5347
4.85237	18.5764
4.86872	18.6187
4.88569	18.6609
4.90229	18.7034
4.91889	18.7451
4.93525	18.7876
4.95173	18.8299
4.96833	18.8716
4.98493	18.9138
5.00105	18.9556
5.01716	18.9978
5.03389	19.0396
5.05049	19.0816
5.06636	19.1231
5.08271	19.1651
5.09907	19.2068
5.11604	19.249
5.13337	19.2905
5.15058	19.3325
5.16719	19.3748
5.18415	19.4168
5.20051	19.459
5.21687	19.5008
5.23396	19.5425
5.25117	19.5835
5.26802	19.6243
5.2845	19.6655
5.30036	19.7071
5.31648	19.7481
5.33235	19.7893
5.34846	19.8308
5.36482	19.8716
5.38191	19.9126
5.39888	19.9536
5.41548	19.9956
5.43183	20.0376
5.44819	20.0791
5.46467	20.1201
5.48127	20.1612
5.49787	20.2019
5.5146	20.2422
5.53096	20.2837
5.54731	20.3252
5.56343	20.3667
5.57978	20.4082
5.597	20.4495
5.61457	20.4915
5.63203	20.5342
5.64949	20.5767
5.66633	20.6189
5.68293	20.6609
5.70014	20.7024
5.71723	20.7434
5.73396	20.7842
5.75007	20.8247
5.76594	20.8655
5.78181	20.9058
5.79817	20.9456
5.81428	20.9859
5.83088	21.0261
5.84809	21.0664
5.86543	21.1067
5.88288	21.1477
5.89973	21.1892
5.9167	21.2305
5.93305	21.271
5.95014	21.3115
5.9676	21.3518
5.9842	21.3916
6.00007	21.4312
6.01594	21.4717
6.03157	21.512
6.04768	21.5518
6.06404	21.5913
6.08076	21.6314
6.09785	21.6719
6.11482	21.7127
6.13166	21.7534
6.14851	21.7942
6.16548	21.8352
6.18257	21.8755
6.19978	21.9155
6.21662	21.9553
6.23323	21.9956
6.24934	22.0354
6.26521	22.075
6.28169	22.1145
6.29805	22.1543
6.3144	22.1941
6.33186	22.2339
6.34944	22.2742
6.36714	22.3147
6.38423	22.3552
6.40095	22.3953
6.4178	22.4351
6.43501	22.4749
6.45161	22.5142
6.46748	22.5528
6.48286	22.5911
6.49873	22.6299
6.51484	22.6685
6.53144	22.7075
6.54805	22.7461
6.56501	22.7857
6.58271	22.8255
6.60029	22.8653
6.61799	22.9051
6.63508	22.9451
6.65229	22.9846
6.66938	23.0239
6.68611	23.062
6.70198	23.1004
6.71809	23.1389
6.73371	23.1765
6.75007	23.2144
6.76643	23.252
6.78303	23.2901
6.80024	23.3281
6.81733	23.3665
6.83503	23.4051
6.85188	23.4444
6.86885	23.4827
6.88594	23.5208
6.90266	23.5586
6.91975	23.5965
6.93586	23.6336
6.95173	23.6702
6.96711	23.7071
6.98323	23.7434
6.99934	23.7801
7.01594	23.8162
7.03266	23.8533
7.04927	23.8904
7.06636	23.9278
7.08381	23.9649
7.10066	24.0022
7.11763	24.0396
7.13423	24.0767
7.15034	24.114
7.16706	24.1516
7.18318	24.1887
7.19905	24.2256
7.21492	24.2627
7.23127	24.2996
7.24812	24.3374
7.26509	24.375
7.28218	24.4131
7.29939	24.4517
7.31697	24.4903
7.33467	24.5279
7.35212	24.5659
7.36897	24.6033
7.38508	24.6402
7.40095	24.677
7.41682	24.7134
7.43269	24.7503
7.44856	24.7864
7.46467	24.8225
7.48152	24.8587
7.49848	24.8958
7.51533	24.9331
7.5323	24.9705
7.54963	25.0069
7.56709	25.0437
7.58418	25.0808
7.60066	25.117
7.61653	25.1531
7.6324	25.1887
7.64851	25.2246
7.66438	25.2603
7.68049	25.2962
7.69709	25.3323
7.71394	25.3689
7.73115	25.4051
7.74885	25.4417
7.7657	25.4788
7.78205	25.5156
7.79927	25.5525
7.8166	25.5886
7.83357	25.625
7.84993	25.6604
7.86555	25.6961
7.88166	25.7317
7.89778	25.7674
7.91413	25.8032
7.93025	25.8389
7.94722	25.8748
7.96455	25.9114
7.98176	25.9485
7.99909	25.9854
8.01655	26.0222
8.03389	26.0584
8.05159	26.095
8.06904	26.1316
8.0854	26.1675
8.10127	26.2024
8.11665	26.2378
8.13227	26.273
8.14814	26.3079
8.16426	26.3428
8.18061	26.3784
8.19722	26.4151
8.21418	26.4514
8.23078	26.4881
8.24787	26.5254
8.26533	26.5628
8.28352	26.5991
8.3011	26.6355
8.31782	26.6717
8.33393	26.7078
8.34931	26.7434
8.36543	26.7786
8.3813	26.8142
8.39741	26.8499
8.41377	26.8855
8.43061	26.9221
8.44783	26.9597
8.46601	26.9973
8.48286	27.0352
8.50032	27.0728
8.51826	27.1099
8.53559	27.1468
8.55256	27.1829
8.56843	27.2183
8.58375	27.2534
8.59938	27.2881
8.61549	27.3223
8.63136	27.3567
8.64747	27.3911
8.66432	27.426
8.68104	27.4619
8.69837	27.4978
8.71559	27.5342
8.73316	27.5711
8.75135	27.6074
8.76881	27.6433
8.78614	27.679
8.80262	27.7149
8.81819	27.7503
8.83406	27.7854
8.85041	27.8203
8.86677	27.8548
8.88325	27.8897
8.89985	27.9246
8.91621	27.9602
8.93367	27.9964
8.951	28.0327
8.96797	28.0686
8.9853	28.1048
9.003	28.1406
9.02034	28.1763
9.0373	28.2119
9.05366	28.2471
9.06953	28.2825
9.08564	28.3172
9.102	28.3516
9.11872	28.3858
9.13508	28.4204
9.15144	28.4546
9.1678	28.4893
9.18415	28.5239
9.20112	28.5584
9.21772	28.5928
9.23457	28.6267
9.25154	28.6609
9.26789	28.6953
9.28425	28.7295
9.30036	28.7642
9.31599	28.7986
9.33235	28.833
9.34858	28.8677
9.3647	28.9024
9.38154	28.9378
9.39814	28.9734
9.41535	29.0095
9.43244	29.0452
9.44966	29.0808
9.46699	29.1157
9.4842	29.1507
9.50105	29.1856
9.51716	29.2197
9.53303	29.2547
9.5489	29.2891
9.56501	29.3233
9.58174	29.3572
9.59809	29.3919
9.6147	29.4268
9.63105	29.4617
9.64802	29.4968
9.66535	29.5327
9.68305	29.5679
9.70027	29.6026
9.71711	29.6365
9.73371	29.6709
9.75007	29.7053
9.76631	29.739
9.78218	29.7725
9.79829	29.8062
9.81465	29.8396
9.83125	29.8733
9.84822	29.907
9.86482	29.9414
9.88142	29.9766
9.89863	30.011
9.91572	30.0454
9.93293	30.0796
9.94978	30.114
9.96662	30.1485
9.9831	30.1824
9.99971	30.2163
10.0158	30.25
10.0319	30.2835
10.048	30.3167
10.0644	30.3509
10.0816	30.385
10.0982	30.4199
10.1148	30.4546
10.1323	30.4895
10.15	30.5247
10.1671	30.5596
10.184	30.5943
10.2006	30.6284
10.2167	30.6629
10.2333	30.6968
10.2497	30.7305
10.2659	30.7642
10.2815	30.7974
10.2976	30.8311
10.3145	30.8648
10.3309	30.8989
10.3475	30.9339
10.3644	30.9685
10.3818	31.0027
10.3995	31.0376
10.4164	31.0723
10.4327	31.1072
10.4489	31.1424
10.4658	31.177
10.4832	31.2117
10.4995	31.2456
10.5158	31.2791
10.5321	31.314
10.5485	31.3494
10.5653	31.3838
10.5823	31.4185
10.5989	31.4529
10.6163	31.4878
10.6334	31.5227
10.6503	31.5572
10.667	31.5921
10.6836	31.6265
10.7002	31.6604
10.7166	31.6944
10.7335	31.7288
10.7501	31.763
10.7667	31.7971
10.7837	31.8308
10.801	31.8653
10.818	31.8994
10.8351	31.9336
10.8523	31.9678
10.8689	32.0015
10.8855	32.0357
10.9022	32.0691
10.9181	32.1021
10.9349	32.1353
10.9518	32.1687
10.9685	32.2017
10.9849	32.2349
11.0015	32.2683
11.0182	32.302
11.0348	32.3357
11.0516	32.3692
11.0684	32.4031
11.0852	32.4373
11.1021	32.4712
11.1182	32.5051
11.1347	32.5393
11.151	32.5735
11.1676	32.6074
11.1842	32.6411
11.2014	32.6751
11.2185	32.709
11.2352	32.7425
11.2518	32.7769
11.2677	32.8103
11.2841	32.8447
11.3007	32.8792
11.3176	32.9131
11.3342	32.9466
11.3506	32.981
11.367	33.0149
11.3834	33.0489
11.3998	33.0833
11.4164	33.1172
11.4336	33.1514
11.4507	33.1846
11.4673	33.2185
11.4838	33.2522
11.5001	33.2866
11.5165	33.3211
11.5333	33.356
11.5501	33.3906
11.5667	33.4248
11.5833	33.4588
11.5996	33.4934
11.6159	33.5279
11.6325	33.562
11.6486	33.596
11.6647	33.6292
11.6813	33.6624
11.6985	33.6958
11.7151	33.7295
11.7312	33.7632
11.7473	33.7971
11.7645	33.8308
11.7814	33.8648
11.7984	33.8985
11.815	33.9329
11.8316	33.9676
11.8482	34.0017
11.8649	34.0357
11.8817	34.0696
11.8989	34.1033
11.9165	34.137
11.934	34.1707
11.9513	34.2046
11.9675	34.2381
11.9839	34.271
12.0007	34.3037
12.0169	34.3362
12.0332	34.3689
12.0491	34.4014
12.065	34.4336
12.0812	34.4661
12.0975	34.4993
12.1139	34.5325
12.1305	34.5659
12.1475	34.5996
12.165	34.6333
12.183	34.6673
12.2004	34.7012
12.2171	34.7346
12.2337	34.7686
12.2504	34.802
12.267	34.835
12.2828	34.8675
12.2985	34.8999
12.3146	34.9335
12.331	34.9664
12.3473	34.9999
12.3642	35.0333
12.3814	35.067
12.3985	35.101
12.4164	35.1354
12.4333	35.1701
12.4502	35.204
12.4673	35.2377
12.4848	35.2706
12.5012	35.3041
12.5173	35.3373
12.5334	35.3703
12.5492	35.403
12.5662	35.4354
12.5826	35.4684
12.5992	35.5016
12.6161	35.535
12.6332	35.5685
12.6507	35.6022
12.6675	35.6356
12.6844	35.6684
12.7011	35.7008
12.7177	35.7335
12.7343	35.7667
12.7504	35.7987
12.7659	35.8307
12.7815	35.8629
12.7978	35.8954
12.8142	35.9279
12.831	35.9608
12.848	35.9945
12.8651	36.0289
12.8833	36.0629
12.9012	36.0963
12.9192	36.13
12.9365	36.1632
12.9532	36.1959
12.9698	36.2284
12.986	36.2609
13.0016	36.2926
13.0174	36.3244
13.0336	36.3556
13.0499	36.3873
13.0665	36.4193
13.0835	36.4513
13.1003	36.4835
13.1175	36.5165
13.1346	36.5492
13.1521	36.5814
13.1689	36.6137
13.1861	36.6454
13.2027	36.6774
13.2189	36.7091
13.2347	36.7406
13.2506	36.7724
13.267	36.8038
13.2839	36.8349
13.301	36.8663
13.3179	36.8986
13.3346	36.9313
13.3514	36.964
13.368	36.996
13.3852	37.0282
13.4021	37.0604
13.4186	37.0922
13.4349	37.1239
13.451	37.1561
13.4672	37.1881
13.483	37.2201
13.4991	37.2512
13.5157	37.2835
13.5327	37.3159
13.5498	37.3486
13.567	37.3814
13.5841	37.4141
13.6007	37.4463
13.6177	37.479
13.6345	37.511
13.6517	37.5425
13.6683	37.574
13.6842	37.6052
13.7001	37.6364
13.7154	37.667
13.7313	37.6983
13.7469	37.7298
13.7638	37.7612
13.7804	37.793
13.7974	37.825
13.8142	37.8574
13.8314	37.8897
13.8487	37.9219
13.866	37.9536
13.8828	37.9856
13.8994	38.0169
13.9159	38.0479
13.9318	38.0794
13.9479	38.1106
13.964	38.1421
13.9803	38.1736
13.9972	38.2051
14.0144	38.2366
14.0317	38.2683
14.0492	38.3003
14.066	38.3328
14.0832	38.365
14.1006	38.3967
14.1178	38.4275
14.1346	38.4583
14.1507	38.4888
14.1664	38.5197
14.1822	38.5504
14.1981	38.5814
14.2146	38.6122
14.2309	38.6422
14.248	38.6734
14.2657	38.7044
14.2828	38.7366
14.2996	38.7683
14.3166	38.8003
14.3341	38.8318
14.3517	38.8631
14.3686	38.8934
14.3845	38.9241
14.4001	38.9556
14.4163	38.9865
14.4324	39.0174
14.4477	39.0476
14.4641	39.0785
14.4807	39.1093
14.4979	39.1405
14.5152	39.1725
14.5322	39.205
14.5488	39.2372
14.5659	39.2687
14.5831	39.2999
14.6006	39.3314
14.6172	39.3627
14.6333	39.3937
14.6492	39.4246
14.6653	39.4556
14.6816	39.4865
14.698	39.5174
14.7147	39.5486
14.7318	39.5803
14.749	39.6126
14.7661	39.6443
14.7833	39.6763
14.8006	39.7085
14.8183	39.7405
14.8358	39.7722
14.8519	39.8034
14.8675	39.8338
14.8834	39.8643
14.8987	39.895
14.9148	39.9257
14.931	39.9568
14.9476	39.9881
14.9645	40.0192
14.9821	40.0504
14.9998	40.0822
15.017	40.1142
15.0344	40.1464
15.0521	40.1776
15.0696	40.2085
15.0864	40.239
15.1022	40.2686
15.1181	40.2984
15.134	40.3283
15.1501	40.3584
15.1664	40.3881
15.183	40.4177
15.2002	40.4481
15.2173	40.4789
15.2345	40.5099
15.2519	40.5412
15.2689	40.5726
15.2864	40.6039
15.3036	40.6347
15.3202	40.6652
15.3366	40.6951
15.3528	40.7254
15.3689	40.7549
15.3851	40.7843
15.4014	40.8139
15.4178	40.8432
15.4341	40.8731
15.4509	40.9027
15.4672	40.9326
15.4841	40.9624
15.5008	40.9931
15.5176	41.0232
15.534	41.0535
15.5506	41.0834
15.5671	41.1129
15.5832	41.1426
15.5993	41.1721
15.6154	41.202
15.632	41.2324
15.6486	41.2628
15.6653	41.2932
15.6822	41.3237
15.6991	41.354
15.7162	41.3851
15.7337	41.4164
15.7508	41.4472
15.768	41.4776
15.7846	41.5076
15.8012	41.537
15.8176	41.5664
15.8334	41.5956
15.8495	41.6243
15.8658	41.6536
15.8819	41.6826
15.898	41.7117
15.9144	41.741
15.9312	41.7704
15.9482	41.7998
15.9655	41.8295
15.9825	41.8591
15.9991	41.8883
16.0152	41.9185
16.0315	41.9479
16.0479	41.9774
16.0644	42.0066
16.0812	42.0359
16.0978	42.0652
16.1143	42.0945
16.1312	42.124
16.1478	42.1541
16.1645	42.1842
16.1816	42.214
16.1987	42.244
16.2161	42.2735
16.233	42.303
16.2494	42.3324
16.266	42.3617
16.2824	42.3911
16.299	42.4201
16.3157	42.4486
16.3321	42.4771
16.3487	42.506
16.3654	42.5352
16.382	42.5642
16.3989	42.5935
16.4161	42.6225
16.4334	42.6515
16.4506	42.6807
16.4672	42.7094
16.4836	42.7378
16.4997	42.7665
16.5162	42.7946
16.5325	42.8229
16.5489	42.8515
16.5647	42.8801
16.5809	42.9087
16.5975	42.9379
16.6144	42.9672
16.6313	42.997
16.6485	43.0266
16.6656	43.056
16.683	43.0856
16.7001	43.1148
16.7165	43.1441
16.733	43.1735
16.7493	43.2033
16.7659	43.2321
16.7825	43.2608
16.7992	43.2894
16.8158	43.3183
16.8324	43.3474
16.8491	43.3768
16.8658	43.4059
16.8821	43.4347
16.8992	43.4625
16.9167	43.4907
16.9339	43.5191
16.9502	43.5475
16.9664	43.5756
16.9825	43.6041
16.9991	43.6326
17.016	43.6604
17.0329	43.6885
17.0495	43.7171
17.0662	43.7456
17.0826	43.7746
17.0992	43.8035
17.1158	43.8322
17.133	43.8606
17.1498	43.8883
17.167	43.9163
17.1839	43.9444
17.2	43.9724
17.2164	44.0001
17.2331	44.0283
17.2494	44.0562
17.2663	44.0844
17.283	44.1122
17.2999	44.1404
17.3167	44.1694
17.3337	44.1978
17.351	44.2263
17.368	44.2543
17.3848	44.2824
17.402	44.3108
17.4186	44.3391
17.435	44.3668
17.4513	44.3949
17.4686	44.4225
17.4856	44.4497
17.5026	44.4771
17.5192	44.5048
17.5353	44.5326
17.5517	44.5604
17.568	44.5879
17.5845	44.615
17.6006	44.6417
17.617	44.668
17.6334	44.6953
17.6497	44.723
17.6661	44.7514
17.6819	44.7796
17.6989	44.8075
17.7162	44.8352
17.7339	44.8627
17.7514	44.8909
17.7682	44.9196
17.7841	44.9489
17.8002	44.9776
17.8172	45.0055
17.8338	45.0325
17.8506	45.0595
17.8674	45.0866
17.8835	45.114
17.8996	45.1416
17.9159	45.1688
17.9323	45.1961
17.9487	45.2229
17.9654	45.2497
17.9822	45.2766
17.9988	45.3042
18.0153	45.3314
18.0317	45.3593
18.0485	45.3866
18.0651	45.414
18.0816	45.4409
18.0982	45.4683
18.1148	45.4954
18.1314	45.5226
18.1479	45.5504
18.1642	45.5779
18.1811	45.6056
18.198	45.6326
18.2151	45.66
18.2324	45.6879
18.2492	45.716
18.2658	45.7435
18.2828	45.7708
18.2999	45.7977
18.3165	45.8241
18.3327	45.8504
18.3488	45.8761
18.3649	45.9028
18.381	45.9297
18.3971	45.9566
18.4135	45.9833
18.4305	46.0104
18.4483	46.0376
18.4662	46.0657
18.4839	46.0933
18.5008	46.121
18.5174	46.1492
18.5346	46.1773
18.5517	46.2042
18.5676	46.2306
18.5834	46.257
18.5999	46.2836
18.6158	46.3103
18.6316	46.3364
18.6478	46.3634
18.6641	46.3905
18.681	46.4174
18.6984	46.444
18.7161	46.4711
18.7327	46.4984
18.7496	46.5255
18.7665	46.5523
18.7834	46.5791
18.8	46.6062
18.8161	46.6323
18.8323	46.6585
18.8487	46.6847
18.8653	46.7112
18.8812	46.7379
18.8975	46.7644
18.9147	46.7916
18.9318	46.8189
18.949	46.8458
18.9661	46.8726
18.9825	46.8998
18.9994	46.9267
19.0165	46.9535
19.0335	46.9799
19.0499	47.0061
19.0657	47.0326
19.0821	47.0587
19.0987	47.0847
19.1154	47.1111
19.1325	47.1378
19.1497	47.1647
19.167	47.1914
19.1845	47.218
19.2016	47.2448
19.219	47.2713
19.2359	47.2971
19.2529	47.3226
19.2695	47.348
19.2858	47.3734
19.3014	47.3983
19.3173	47.4231
19.3334	47.448
19.3495	47.4732
19.3659	47.4987
19.3829	47.5242
19.4	47.5504
19.4174	47.5767
19.4347	47.6029
19.4517	47.6288
19.4686	47.6547
19.4855	47.6806
19.5019	47.7064
19.518	47.7322
19.5344	47.7576
19.5505	47.7832
19.5674	47.8084
19.5845	47.834
19.6017	47.8598
19.6181	47.8859
19.6349	47.912
19.6518	47.9374
19.6688	47.9625
19.6858	47.9874
19.7028	48.0125
19.7192	48.0369
19.735	48.0613
19.7507	48.0857
19.766	48.1099
19.7819	48.1337
19.798	48.1581
19.8144	48.183
19.8312	48.2085
19.8484	48.2343
19.8653	48.2604
19.8825	48.2863
19.8996	48.3123
19.9166	48.3379
19.9336	48.3633
19.9505	48.3888
19.9675	48.4138
19.9836	48.4387
19.9994	48.4632
20.0151	48.4874
20.0309	48.511
20.047	48.5355
20.0637	48.5606
20.0804	48.586
20.097	48.6116
20.1138	48.637
20.1313	48.6627
20.1489	48.6886
20.1668	48.7139
20.184	48.7392
20.2004	48.7647
20.2167	48.7896
20.2331	48.8145
20.2496	48.8388
20.2659	48.8631
20.2823	48.8872
20.2989	48.9111
20.3155	48.935
20.3322	48.9595
20.3486	48.9846
20.3652	49.0088
20.3826	49.0332
20.4003	49.0569
20.4167	49.0808
20.433	49.1044
20.4489	49.1282
20.4645	49.1521
20.4806	49.1763
20.497	49.2006
20.5136	49.2244
20.5306	49.249
20.5477	49.2738
20.5646	49.2993
20.5815	49.3247
20.5983	49.3505
20.6155	49.3759
20.6337	49.4008
20.6513	49.4249
20.6678	49.4485
20.6837	49.4715
20.6995	49.4949
20.7154	49.5181
20.7315	49.5414
20.7479	49.5645
20.7645	49.588
20.7822	49.6117
20.7995	49.6358
20.8165	49.6602
20.8336	49.6847
20.8505	49.7095
20.8674	49.7335
20.8842	49.7575
20.9003	49.7814
20.9168	49.8049
20.9327	49.8284
20.9486	49.8517
20.9652	49.8754
20.9818	49.8991
20.9987	49.9231
21.0156	49.9475
21.033	49.9722
21.0504	49.9972
21.0676	50.0219
21.0847	50.0463
21.1021	50.0701
21.119	50.0935
21.1351	50.1161
21.1507	50.1397
21.1661	50.1629
21.1815	50.1859
21.1976	50.2091
21.2142	50.2326
21.2314	50.2556
21.2485	50.2796
21.2662	50.3039
21.2839	50.3292
21.301	50.3548
21.3181	50.3794
21.3363	50.4041
21.3542	50.428
21.3717	50.4508
21.3878	50.4732
21.4029	50.496
21.418	50.5184
21.4331	50.5404
21.4489	50.5619
21.4653	50.5842
21.4823	50.6071
21.4991	50.6299
21.5162	50.6532
21.5334	50.6774
21.5505	50.7019
21.5682	50.7261
21.5856	50.75
21.603	50.7737
21.6202	50.7974
21.6365	50.82
21.6522	50.8424
21.6678	50.8649
21.6837	50.8871
21.6998	50.9096
21.7159	50.932
21.7325	50.9546
21.7495	50.9782
21.7666	51.0021
21.7838	51.0257
21.8013	51.0495
21.8186	51.0729
21.8354	51.0961
21.852	51.1193
21.8682	51.1424
21.8841	51.1653
21.9002	51.1882
21.9168	51.2106
21.9334	51.2326
21.95	51.2548
21.9667	51.2771
21.9826	51.2998
21.999	51.3231
22.0158	51.3466
22.0333	51.3694
22.0501	51.392
22.0673	51.4144
22.0837	51.4369
22.1003	51.4591
22.1164	51.4816
22.132	51.5039
22.1481	51.5263
22.1646	51.5484
22.1815	51.5705
22.1981	51.5928
22.2144	51.6146
22.2312	51.6375
22.248	51.6598
22.2646	51.6824
22.2805	51.705
22.2972	51.7277
22.3143	51.7503
22.3315	51.7731
22.3483	51.7959
22.3656	51.8189
22.3824	51.8421
22.3992	51.8645
22.4165	51.8873
22.4335	51.9102
22.45	51.9328
22.4669	51.9549
22.4843	51.9765
22.5012	51.9977
22.5175	52.0187
22.5334	52.0396
22.549	52.0603
22.5651	52.0814
22.582	52.1024
22.5985	52.1239
22.6148	52.1452
22.6309	52.1674
22.6478	52.1901
22.665	52.213
22.6818	52.236
22.699	52.2587
22.7164	52.2814
22.7346	52.3032
22.7518	52.3253
22.7679	52.3468
22.7835	52.3682
22.7991	52.3891
22.815	52.4096
22.8311	52.4303
22.8472	52.4516
22.8636	52.4729
22.8804	52.4953
22.8981	52.5177
22.9154	52.5405
22.9324	52.563
22.9501	52.586
22.9675	52.6089
22.9849	52.6323
23.0013	52.6547
23.0174	52.6767
23.0338	52.6985
23.0505	52.7194
23.0671	52.7405
23.083	52.7614
23.0988	52.7827
23.1149	52.8039
23.1315	52.8248
23.1488	52.846
23.1656	52.8672
23.1828	52.8882
23.1999	52.9097
23.2169	52.9312
23.2332	52.9531
23.2493	52.9751
23.2659	52.9967
23.2823	53.0181
23.2995	53.0394
23.3166	53.0602
23.3336	53.0809
23.3497	53.1022
23.3663	53.1235
23.3826	53.1454
23.3994	53.167
23.4165	53.1881
23.4342	53.2095
23.4521	53.2312
23.4694	53.2522
23.4866	53.2732
23.5032	53.2947
23.5201	53.3157
23.5365	53.3363
23.5532	53.3565
23.5695	53.3759
23.5861	53.396
23.6025	53.416
23.6192	53.4357
23.6356	53.4556
23.6517	53.4761
23.6685	53.4961
23.6853	53.5167
23.7019	53.5369
23.7185	53.5574
23.7352	53.5784
23.7515	53.5993
23.7686	53.6194
23.7856	53.6395
23.8024	53.6602
23.819	53.6807
23.8355	53.7011
23.8519	53.7211
23.8682	53.7409
23.8848	53.7601
23.901	53.7794
23.9168	53.7985
23.9329	53.8187
23.9492	53.8392
23.965	53.8595
23.9816	53.8799
23.9987	53.9003
24.0162	53.9208
24.0339	53.9418
24.0512	53.9633
24.0682	53.9848
24.085	54.0061
24.1019	54.0263
24.1188	54.0463
24.1355	54.0658
24.1518	54.0847
24.1679	54.1035
24.1835	54.1221
24.1987	54.1409
24.2141	54.1596
24.2297	54.1786
24.246	54.198
24.2629	54.218
24.2803	54.2377
24.2972	54.2577
24.3138	54.2787
24.3308	54.2999
24.3476	54.3211
24.3646	54.3416
24.3814	54.3618
24.3986	54.3815
24.4152	54.4011
24.4318	54.4209
24.448	54.4408
24.4646	54.4606
24.4818	54.4796
24.4986	54.4988
24.5163	54.5184
24.5332	54.5385
24.5496	54.5582
24.5662	54.5783
24.5837	54.598
24.6008	54.6176
24.6174	54.6367
24.6335	54.6564
24.6496	54.6762
24.6661	54.6959
24.6827	54.7149
24.6993	54.7338
24.7163	54.7534
24.7331	54.7726
24.7503	54.7918
24.7669	54.8114
24.783	54.8314
24.7996	54.8507
24.8168	54.8699
24.8342	54.8887
24.8509	54.9077
24.8668	54.9268
24.8826	54.9455
24.8985	54.9647
24.9146	54.9838
24.9307	55.0029
24.9473	55.022
24.9642	55.0418
24.9814	55.0613
24.9991	55.0814
25.0157	55.1016
25.0328	55.1216
25.0495	55.142
25.0664	55.1618
25.0836	55.181
25.1002	55.2001
25.1168	55.2191
25.1331	55.2383
25.1496	55.2577
25.166	55.2771
25.1823	55.2968
25.1989	55.3164
25.2164	55.3353
25.2343	55.3544
25.2519	55.3737
25.2689	55.3927
25.2852	55.4115
25.3016	55.4295
25.3177	55.4476
25.3336	55.4653
25.349	55.483
25.3648	55.5007
25.3812	55.5193
25.3981	55.5379
25.4147	55.5567
25.4316	55.5758
25.449	55.596
25.4664	55.6165
25.4836	55.6365
25.5013	55.656
25.5189	55.6749
25.5363	55.6934
25.5529	55.7114
25.5688	55.7293
25.5849	55.7466
25.6005	55.7639
25.6164	55.7813
25.6328	55.7985
25.6491	55.8158
25.6658	55.8338
25.6829	55.8526
25.6999	55.8715
25.7175	55.8906
25.7349	55.9099
25.7524	55.9293
25.7695	55.9478
25.7863	55.9657
25.8033	55.9837
25.8197	56.0016
25.8353	56.0191
25.8514	56.036
25.8678	56.0537
25.8844	56.0712
25.9008	56.0886
25.9177	56.1061
25.934	56.1243
25.951	56.1428
25.9678	56.161
25.9847	56.1787
26.0014	56.197
26.0175	56.2152
26.0341	56.2329
26.0502	56.2505
26.0661	56.2682
26.0825	56.2859
26.099	56.3035
26.1156	56.3208
26.1324	56.3386
26.1491	56.3574
26.166	56.3759
26.1828	56.3948
26.2003	56.4132
26.218	56.4319
26.2353	56.4497
26.2519	56.4677
26.2684	56.4854
26.2843	56.5031
26.2999	56.5205
26.3157	56.5374
26.3319	56.5543
26.3485	56.5708
26.3653	56.5878
26.382	56.605
26.3986	56.6225
26.4152	56.6403
26.4324	56.6585
26.4495	56.6759
26.4665	56.6931
26.4831	56.7105
26.4992	56.7274
26.5153	56.7448
26.5317	56.7623
26.548	56.7797
26.5645	56.797
26.5809	56.8141
26.5982	56.8312
26.6157	56.8486
26.6329	56.8665
26.6492	56.8839
26.6661	56.9014
26.6838	56.9185
26.7006	56.9347
26.7176	56.9512
26.7335	56.9675
26.749	56.9841
26.7652	57.0006
26.7815	57.0176
26.7979	57.0338
26.8146	57.0508
26.8319	57.0681
26.8491	57.0857
26.8665	57.1038
26.8834	57.1215
26.9008	57.1391
26.9182	57.1564
26.9359	57.1736
26.9523	57.1895
26.9682	57.2059
26.984	57.2223
26.9996	57.2384
27.0153	57.2544
27.0314	57.2704
27.0477	57.2865
27.0639	57.3029
27.0807	57.3197
27.0979	57.3367
27.1148	57.3549
27.132	57.3726
27.1493	57.3898
27.1668	57.4071
27.1839	57.4243
27.2006	57.4411
27.2164	57.4578
27.2323	57.4751
27.2484	57.4916
27.2648	57.5081
27.2814	57.5246
27.2979	57.5413
27.3152	57.5582
27.3327	57.5751
27.35	57.5919
27.3672	57.609
27.3843	57.6259
27.4017	57.6419
27.4186	57.658
27.4345	57.6736
27.4503	57.6893
27.4662	57.7045
27.4823	57.7204
27.4984	57.7362
27.5147	57.7523
27.5315	57.7684
27.5486	57.785
27.5658	57.8022
27.5831	57.8195
27.6006	57.8367
27.6181	57.8529
27.6354	57.8697
27.6528	57.8858
27.6694	57.9014
27.6851	57.9168
27.7012	57.9324
27.7175	57.9473
27.7337	57.9622
27.7501	57.9775
27.7665	57.9929
27.7831	58.0094
27.8003	58.0257
27.8174	58.0421
27.8342	58.0587
27.8517	58.0756
27.8692	58.0919
27.8865	58.1084
27.9035	58.1245
27.9198	58.1408
27.9362	58.1566
27.9523	58.1722
27.9686	58.1878
27.985	58.2037
28.002	58.2194
28.0186	58.235
28.0354	58.2511
28.0524	58.2669
28.069	58.2829
28.086	58.298
28.1023	58.3134
28.1189	58.3287
28.1353	58.3444
28.1516	58.3588
28.1671	58.3741
28.1832	58.3895
28.1993	58.4044
28.2154	58.4201
28.232	58.4358
28.2485	58.4524
28.2651	58.4688
28.2824	58.4848
28.3001	58.5006
28.3173	58.5172
28.3344	58.5332
28.351	58.5488
28.3671	58.5646
28.3834	58.58
28.3997	58.595
28.4156	58.6099
28.4315	58.6251
28.4481	58.6403
28.4649	58.6552
28.4816	58.6704
28.4982	58.6857
28.5146	58.7009
28.5316	58.7158
28.5482	58.7307
28.5648	58.7456
28.5814	58.76
28.5976	58.7745
28.614	58.7896
28.6303	58.8046
28.6464	58.8201
28.6628	58.835
28.6803	58.8502
28.6973	58.8657
28.7143	58.8813
28.7314	58.8969
28.7481	58.9128
28.765	58.929
28.7818	58.9444
28.7993	58.9598
28.8164	58.9747
28.8333	58.9901
28.8497	59.0047
28.8663	59.0195
28.8824	59.035
28.8985	59.0504
28.9147	59.0653
28.9311	59.0801
28.948	59.0953
28.9648	59.1112
28.9818	59.1265
28.9986	59.142
29.0164	59.158
29.0339	59.1737
29.0512	59.1885
29.0675	59.2031
29.0839	59.2177
29.1005	59.2319
29.1163	59.2466
29.1322	59.2606
29.1487	59.275
29.1653	59.2891
29.1816	59.3037
29.1989	59.3185
29.2157	59.3333
29.2326	59.3483
29.2495	59.3638
29.2669	59.3793
29.2838	59.3942
29.3004	59.4091
29.317	59.4241
29.3337	59.439
29.3503	59.4539
29.3667	59.4683
29.3831	59.4829
29.3998	59.4981
29.4164	59.5125
29.433	59.527
29.4496	59.5417
29.4666	59.556
29.4834	59.5701
29.5004	59.5839
29.5167	59.5982
29.5331	59.6126
29.5494	59.627
29.5658	59.6406
29.5828	59.6546
29.5999	59.6685
29.6166	59.6826
29.6332	59.6969
29.65	59.7113
29.667	59.7259
29.6838	59.7402
29.7007	59.7539
29.7177	59.7673
29.7345	59.7812
29.7517	59.7949
29.7683	59.8086
29.7844	59.8218
29.8013	59.8355
29.8185	59.849
29.8348	59.8624
29.8514	59.8757
29.8679	59.8898
29.8843	59.9039
29.9009	59.9178
29.9175	59.9318
29.9342	59.946
29.9511	59.9599
29.9683	59.974
29.9849	59.988
30.0012	60.0018
30.0176	60.0159
30.0346	60.0293
30.0514	60.0427
30.0682	60.0563
30.0852	60.07
30.1016	60.0833
30.1177	60.0974
30.134	60.1108
30.1504	60.1242
30.1671	60.1374
30.184	60.1504
30.2006	60.1638
30.2173	60.1775
30.2337	60.1917
30.25	60.2055
30.2664	60.2197
30.2831	60.2332
30.3002	60.247
30.3176	60.2606
30.3345	60.2746
30.3517	60.2887
30.368	60.3025
30.3844	60.3162
30.4013	60.329
30.418	60.3419
30.4341	60.3545
30.4504	60.3671
30.4663	60.3796
30.4822	60.393
30.4983	60.4061
30.5142	60.419
30.531	60.4321
30.548	60.4453
30.5648	60.4587
30.5814	60.4727
30.5986	60.4865
30.6152	60.5006
30.6322	60.514
30.6493	60.5268
30.6661	60.5398
30.6826	60.5527
30.6985	60.5653
30.7146	60.5783
30.7307	60.5911
30.7471	60.6039
30.7639	60.6166
30.7816	60.6292
30.7993	60.6425
30.8167	60.656
30.8331	60.6692
30.8495	60.6826
30.8663	60.6958
30.8833	60.7083
30.8999	60.7207
30.9165	60.7329
30.9329	60.7454
30.9487	60.7584
30.9652	60.7711
30.9816	60.7841
30.9979	60.7969
31.015	60.8096
31.0325	60.8234
31.0497	60.8369
31.0668	60.8507
31.0834	60.864
31.1003	60.8769
31.117	60.8892
31.1338	60.9014
31.1499	60.9132
31.1655	60.9251
31.181	60.9371
31.1968	60.949
31.2132	60.9616
31.2298	60.9744
31.2462	60.9871
31.2636	61.0004
31.2813	61.0144
31.2984	61.0287
31.3156	61.0431
31.3327	61.0573
31.3499	61.0709
31.3673	61.0839
31.3839	61.0962
31.4003	61.1083
31.4162	61.1208
31.4323	61.1335
31.4487	61.1457
31.465	61.158
31.482	61.1702
31.4991	61.1826
31.5165	61.1957
31.5336	61.2093
31.5508	61.2228
31.5675	61.2362
31.5841	61.249
31.601	61.2611
31.6171	61.273
31.633	61.285
31.6486	61.2971
31.6647	61.309
31.6811	61.3211
31.6977	61.3332
31.7149	61.3459
31.7318	61.3586
31.7495	61.3717
31.7673	61.385
31.785	61.3986
31.8022	61.4114
31.819	61.4235
31.8359	61.4356
31.8526	61.4477
31.8687	61.4597
31.8846	61.4711
31.9007	61.4819
31.9168	61.493
31.9337	61.5048
31.9501	61.5161
31.967	61.5276
31.9841	61.5399
32.001	61.5524
32.0181	61.5646
32.0351	61.5765
32.0519	61.5882
32.0688	61.6006
32.0858	61.6124
32.1019	61.6236
32.118	61.6357
32.1341	61.6476
32.1507	61.6596
32.1677	61.6712
32.1848	61.6834
32.2015	61.6954
32.2181	61.7073
32.2349	61.7192
32.2521	61.7315
32.2687	61.7435
32.2851	61.7549
32.301	61.7664
32.3171	61.7778
32.3338	61.7891
32.3502	61.7999
32.3663	61.8112
32.3829	61.8229
32.3992	61.835
32.4162	61.8472
32.4328	61.8596
32.4498	61.8723
32.4669	61.8848
32.4843	61.8967
32.5017	61.9086
32.5183	61.9204
32.5347	61.9317
32.5513	61.9426
32.567	61.9536
32.5828	61.9645
32.5985	61.975
32.6143	61.9858
32.6307	61.9965
32.6473	62.0082
32.6643	62.02
32.6809	62.0322
32.6977	62.0446
32.7154	62.057
32.7329	62.0685
32.7499	62.0795
32.7665	62.0909
32.7827	62.1018
32.7983	62.113
32.8144	62.1237
32.83	62.135
32.8465	62.146
32.8631	62.1571
32.8804	62.1683
32.8981	62.1801
32.9156	62.1924
32.9327	62.2041
32.9499	62.2163
32.9672	62.2277
32.9847	62.2391
33.0015	62.2498
33.0179	62.2602
33.0333	62.2703
33.0492	62.2803
33.0651	62.2902
33.0812	62.3005
33.0975	62.311
33.1141	62.3214
33.1311	62.3322
33.1484	62.3435
33.1657	62.3547
33.183	62.3658
33.2007	62.3771
33.2184	62.3886
33.2352	62.3998
33.2516	62.4102
33.2677	62.4208
33.2833	62.4313
33.2992	62.4418
33.3153	62.4518
33.3312	62.4619
33.3474	62.4727
33.364	62.484
33.3806	62.4957
33.3972	62.5078
33.4144	62.52
33.4321	62.5315
33.4502	62.5432
33.4679	62.5545
33.4851	62.5657
33.5015	62.5773
33.5171	62.5883
33.533	62.5986
33.5491	62.6088
33.5657	62.6186
33.5823	62.6286
33.5988	62.6398
33.6156	62.6513
33.6327	62.663
33.6499	62.6748
33.6676	62.6856
33.6852	62.6961
33.7024	62.7069
33.7185	62.7172
33.7341	62.7277
33.7498	62.7376
33.7654	62.7473
33.7815	62.7568
33.7979	62.7664
33.8145	62.7766
33.8317	62.7874
33.8493	62.7985
33.8667	62.8096
33.8844	62.821
33.9015	62.832
33.919	62.8432
33.9365	62.8541
33.9533	62.8647
33.9691	62.8748
33.9852	62.8845
34.0016	62.894
34.0177	62.903
34.0341	62.9124
34.0502	62.9218
34.0669	62.932
34.0833	62.9421
34.1003	62.9522
34.1178	62.9625
34.1351	62.9732
34.1528	62.9832
34.1703	62.993
34.1871	63.0036
34.2037	63.014
34.2196	63.0237
34.2352	63.0333
34.2511	63.0425
34.2676	63.0519
34.2842	63.0612
34.3005	63.0709
34.3171	63.0812
34.3336	63.0924
34.3502	63.1028
34.3668	63.113
34.384	63.1235
34.4009	63.1336
34.418	63.1437
34.4349	63.1538
34.4506	63.1638
34.4667	63.1739
34.4823	63.1838
34.4984	63.1937
34.5145	63.2036
34.5314	63.2144
34.5486	63.2253
34.5654	63.2364
34.5829	63.2481
34.6005	63.2597
34.6182	63.2706
34.6351	63.281
34.6517	63.2913
34.6683	63.301
34.6847	63.3109
34.7006	63.3201
34.716	63.3288
34.7316	63.3375
34.7475	63.346
34.7641	63.3547
34.7802	63.3643
34.7966	63.3743
34.8135	63.3842
34.8309	63.3944
34.8486	63.4045
34.8657	63.4147
34.8824	63.4248
34.8988	63.4351
34.9154	63.4455
34.932	63.4561
34.9487	63.4659
34.9653	63.4755
34.9821	63.4851
34.9988	63.4945
35.0154	63.5042
35.0313	63.5139
35.0479	63.5244
35.0649	63.534
35.082	63.544
35.0994	63.553
35.1165	63.5624
35.1335	63.5717
35.1503	63.5814
35.1665	63.5908
35.1828	63.6005
35.1994	63.61
35.2159	63.619
35.233	63.6286
35.2502	63.6379
35.267	63.6475
35.2834	63.6573
35.3004	63.6671
35.3175	63.6765
35.3341	63.6863
35.3505	63.6956
35.3666	63.7043
35.3832	63.7131
35.3996	63.7222
35.416	63.7309
35.4318	63.7401
35.4477	63.7494
35.4642	63.7589
35.4808	63.7683
35.4974	63.7777
35.5148	63.7874
35.5322	63.7972
35.5496	63.8079
35.5667	63.818
35.5832	63.8281
35.5996	63.8383
35.6159	63.8479
35.6328	63.8577
35.6497	63.8676
35.6663	63.8771
35.6827	63.8864
35.6994	63.8963
35.716	63.906
35.7329	63.9157
35.7496	63.9251
35.7664	63.9343
35.7838	63.943
35.8007	63.9512
35.8171	63.9595
35.8332	63.9679
35.8491	63.9772
35.8654	63.9855
35.8821	63.9941
35.899	64.0026
35.9156	64.0113
35.9321	64.0206
35.9492	64.0305
35.9664	64.0408
35.9835	64.0505
36.0006	64.0609
36.0178	64.0701
36.0352	64.0795
36.0523	64.0881
36.0687	64.0971
36.085	64.106
36.1018	64.1141
36.1184	64.1221
36.1347	64.1302
36.1511	64.1389
36.1675	64.1472
36.1842	64.1559
36.201	64.165
36.2182	64.174
36.2355	64.1826
36.2528	64.1914
36.2701	64.2005
36.2868	64.2101
36.3032	64.2189
36.3195	64.2279
36.3361	64.2362
36.3531	64.2441
36.3702	64.2521
36.3865	64.2601
36.4028	64.2687
36.4189	64.277
36.4348	64.2852
36.4509	64.2931
36.4672	64.3012
36.4838	64.309
36.5002	64.3172
36.5169	64.3263
36.5335	64.3352
36.5496	64.3441
36.5662	64.3525
36.5834	64.3613
36.6005	64.3699
36.6175	64.3785
36.6343	64.3872
36.6507	64.3959
36.6668	64.405
36.6833	64.4133
36.7001	64.4216
36.7165	64.4298
36.7329	64.4383
36.7493	64.4467
36.7657	64.4553
36.7823	64.4644
36.7989	64.4735
36.8156	64.4821
36.8322	64.4907
36.8491	64.4995
36.8663	64.5079
36.8829	64.5167
36.8995	64.5255
36.9162	64.5337
36.9328	64.542
36.9489	64.5494
36.9653	64.5567
36.9818	64.5644
36.9981	64.5722
37.0145	64.5808
37.0308	64.5893
37.0478	64.5979
37.0651	64.6061
37.0826	64.6149
37.1002	64.6235
37.1171	64.6322
37.1337	64.641
37.1503	64.6493
37.1673	64.6574
37.1837	64.6645
37.2	64.672
37.2156	64.6794
37.2315	64.6872
37.2476	64.695
37.2637	64.7028
37.2805	64.7114
37.2973	64.7197
37.3146	64.7279
37.3323	64.7367
37.3498	64.7455
37.367	64.7547
37.3836	64.7631
37.4004	64.7709
37.4174	64.7783
37.4338	64.7861
37.4499	64.7933
37.466	64.8007
37.4821	64.8086
37.4982	64.8163
37.5146	64.8241
37.531	64.8313
37.5479	64.8397
37.565	64.8484
37.5819	64.8574
37.5988	64.866
37.6158	64.8745
37.6328	64.8833
37.6497	64.8919
37.6667	64.9002
37.6825	64.9082
37.6989	64.9168
37.7155	64.9249
37.7322	64.9326
37.7491	64.9405
37.7657	64.9485
37.7826	64.9563
37.7995	64.9645
37.8167	64.9724
37.8333	64.9805
37.8499	64.9887
37.8669	64.9965
37.8839	65.0043
37.9008	65.0124
37.9167	65.0205
37.9325	65.0283
37.949	65.0363
37.9654	65.044
37.982	65.0519
37.9989	65.0603
38.016	65.0691
38.0337	65.0782
38.0511	65.0866
38.0685	65.0946
38.0858	65.1026
38.1031	65.1106
38.1199	65.1184
38.1363	65.1257
38.1525	65.1331
38.1684	65.1398
38.1842	65.1461
38.2004	65.152
38.2167	65.1589
38.2333	65.1663
38.2497	65.1741
38.2669	65.182
38.284	65.1901
38.3014	65.1984
38.3189	65.2063
38.336	65.2139
38.3528	65.2217
38.3693	65.2303
38.3854	65.2381
38.4013	65.2458
38.4174	65.2534
38.4342	65.261
38.4512	65.2687
38.4683	65.2761
38.4855	65.2845
38.5024	65.293
38.5185	65.3014
38.5353	65.3091
38.5525	65.3166
38.5694	65.3235
38.5861	65.3304
38.6025	65.3369
38.6181	65.3435
38.6339	65.3504
38.6498	65.3568
38.6659	65.3633
38.6825	65.3698
38.6994	65.3764
38.7159	65.3839
38.7329	65.3917
38.7495	65.3995
38.7663	65.4075
38.7829	65.4156
38.7997	65.4231
38.8164	65.4304
38.8333	65.4375
38.8499	65.4445
38.866	65.4518
38.8814	65.4591
38.8976	65.4668
38.9137	65.4737
38.9305	65.4815
38.9475	65.4893
38.9641	65.4977
38.9807	65.5065
38.9977	65.5154
39.015	65.5238
39.0327	65.5319
39.0498	65.5395
39.0665	65.5468
39.0824	65.5543
39.0985	65.5614
39.1146	65.5684
39.131	65.5751
39.1476	65.5813
39.1648	65.5878
39.1816	65.5948
39.1988	65.6022
39.2157	65.61
39.2324	65.617
39.2492	65.6243
39.2669	65.6312
39.284	65.6375
39.3006	65.6439
39.3163	65.6501
39.3319	65.6566
39.3478	65.6635
39.3636	65.6702
39.3797	65.6767
39.3969	65.6835
39.4143	65.6908
39.4317	65.6984
39.4488	65.7066
39.466	65.7147
39.4831	65.7229
39.5006	65.7305
39.518	65.7373
39.5349	65.7441
39.551	65.7508
39.5669	65.7575
39.583	65.7639
39.5986	65.7702
39.6147	65.7761
39.6311	65.7824
39.6483	65.7893
39.6656	65.7962
39.6826	65.8035
39.6992	65.8109
39.716	65.818
39.7332	65.8254
39.7507	65.8324
39.7678	65.8394
39.7842	65.8463
39.8	65.8529
39.8161	65.8589
39.8322	65.8661
39.8485	65.8732
39.8648	65.88
39.8817	65.8872
39.8989	65.8948
39.9162	65.9025
39.9332	65.9104
39.9503	65.9176
39.9677	65.925
39.9851	65.9325
40.002	65.9388
40.0182	65.9445
40.034	65.9504
40.0497	65.9562
40.0653	65.962
40.0814	65.9681
40.0975	65.9743
40.1144	65.9811
40.1318	65.9881
40.1494	65.9953
40.1668	66.0027
40.1843	66.0109
40.2019	66.0179
40.2196	66.025
40.2367	66.0313
40.2536	66.0369
40.2693	66.0421
40.2846	66.0475
40.3004	66.053
40.3168	66.0581
40.3329	66.0636
40.3496	66.069
40.3665	66.0756
40.3836	66.0825
40.4008	66.0897
40.4179	66.0971
40.4353	66.1043
40.4528	66.1116
40.4699	66.1181
40.4862	66.1251
40.5026	66.1315
40.5188	66.1381
40.5349	66.1438
40.5511	66.1493
40.5674	66.1553
40.5838	66.1614
40.6004	66.1677
40.6171	66.1743
40.6339	66.1807
40.6508	66.187
40.6678	66.1932
40.6846	66.1994
40.701	66.2059
40.7174	66.2124
40.7338	66.2185
40.7502	66.2247
40.7663	66.2306
40.7829	66.2365
40.7994	66.2431
40.816	66.2497
40.8328	66.2565
40.8495	66.263
40.8664	66.2702
40.8838	66.2771
40.9009	66.2839
40.9178	66.2905
40.9347	66.2969
40.9513	66.3032
40.9677	66.3094
40.9836	66.3149
40.9992	66.3204
41.015	66.3268
41.0309	66.3323
41.0479	66.3381
41.0642	66.3441
41.0806	66.3508
41.0974	66.3574
41.1147	66.3635
41.1317	66.3701
41.149	66.3768
41.1656	66.3835
41.1822	66.3892
41.1991	66.3952
41.2157	66.4015
41.2318	66.4076
41.2482	66.4125
41.2649	66.4178
41.2813	66.4237
41.2981	66.4295
41.3146	66.4354
41.331	66.4412
41.3478	66.4474
41.3653	66.4533
41.3824	66.4591
41.3987	66.4645
41.4154	66.4713
41.4318	66.4777
41.4484	66.484
41.465	66.4898
41.4815	66.4958
41.4981	66.5021
41.5149	66.5084
41.5321	66.5153
41.549	66.522
41.5656	66.5291
41.5828	66.5352
41.5999	66.5415
41.6173	66.5477
41.6339	66.554
41.6501	66.5598
41.6659	66.5654
41.6822	66.5706
41.6985	66.5757
41.7146	66.5813
41.7305	66.5867
41.7469	66.5928
41.7635	66.599
41.7807	66.6058
41.7978	66.6127
41.815	66.6197
41.8323	66.6268
41.85	66.6339
41.8672	66.6406
41.8838	66.6472
41.9004	66.6538
41.9173	66.6597
41.9345	66.6659
41.9506	66.6719
41.967	66.6772
41.9828	66.6831
41.9995	66.6888
42.0161	66.6949
42.0327	66.7009
42.0494	66.7059
42.0668	66.7112
42.0839	66.717
42.1004	66.7226
42.1162	66.7277
42.1324	66.7333
42.149	66.7387
42.1658	66.7443
42.183	66.7495
42.1996	66.755
42.2166	66.7615
42.2332	66.768
42.25	66.7746
42.2672	66.7809
42.2843	66.7868
42.3018	66.7924
42.3189	66.7978
42.3361	66.8031
42.3527	66.8086
42.3686	66.814
42.3852	66.8186
42.4019	66.8238
42.4185	66.8286
42.4351	66.8334
42.4516	66.8389
42.4684	66.8445
42.485	66.8503
42.5016	66.8563
42.5186	66.8615
42.5354	66.867
42.5529	66.8726
42.5697	66.8777
42.5854	66.8828
42.6012	66.8881
42.6176	66.8932
42.6346	66.8984
42.6514	66.9036
42.6684	66.9088
42.6847	66.9146
42.7011	66.9204
42.7172	66.926
42.7338	66.9317
42.7505	66.9371
42.7669	66.9422
42.7835	66.9474
42.8003	66.953
42.8166	66.9584
42.8324	66.9637
42.8485	66.9693
42.8651	66.9747
42.8826	66.9803
42.8999	66.9859
42.9176	66.9918
42.9347	66.998
42.9508	67.0044
42.9673	67.0105
42.9842	67.0162
43.0008	67.0217
43.0177	67.0267
43.0343	67.0316
43.0507	67.037
43.0663	67.0417
43.0822	67.0462
43.0983	67.0509
43.1149	67.0555
43.1319	67.0598
43.1485	67.0641
43.1651	67.0696
43.1816	67.0748
43.1979	67.0805
43.2145	67.086
43.2311	67.0917
43.2481	67.0977
43.2649	67.1037
43.2819	67.1091
43.2983	67.1149
43.3146	67.121
43.331	67.1264
43.3479	67.132
43.365	67.1373
43.3825	67.1424
43.3996	67.1478
43.4159	67.1531
43.4323	67.158
43.4493	67.1628
43.4663	67.1676
43.4833	67.1719
43.4997	67.1758
43.5158	67.1806
43.5319	67.1854
43.5483	67.1904
43.5644	67.1955
43.5808	67.2005
43.5979	67.2059
43.6154	67.2119
43.6327	67.2177
43.6499	67.224
43.667	67.2301
43.684	67.2352
43.7008	67.2402
43.7177	67.2449
43.7336	67.249
43.7492	67.2533
43.7653	67.2582
43.7815	67.2625
43.7976	67.2676
43.814	67.2721
43.8308	67.2773
43.8483	67.2826
43.8659	67.2885
43.8826	67.294
43.8992	67.3004
43.9158	67.3063
43.933	67.3115
43.9499	67.317
43.9662	67.3221
43.9827	67.3272
43.9991	67.3321
44.0159	67.3374
44.0323	67.3428
44.049	67.3483
44.0653	67.3535
44.0827	67.3587
44.0999	67.3644
44.1173	67.3696
44.1342	67.3746
44.1508	67.3795
44.1678	67.3839
44.1846	67.3883
44.201	67.3922
44.2166	67.3962
44.2327	67.3999
44.2488	67.4039
44.2649	67.4079
44.2819	67.4124
44.2985	67.4177
44.3153	67.4236
44.3328	67.4298
44.3505	67.4361
44.3678	67.4419
44.3858	67.4471
44.4032	67.4526
44.4203	67.4577
44.4367	67.4624
44.4525	67.4668
44.4687	67.4701
44.4845	67.4735
44.5008	67.4769
44.5166	67.4804
44.533	67.4849
44.5498	67.4898
44.5667	67.4946
44.5844	67.4999
44.6018	67.5056
44.6189	67.5111
44.6361	67.5168
44.6532	67.5216
44.67	67.5263
44.6858	67.5307
44.7019	67.5348
44.7178	67.5391
44.7342	67.5433
44.751	67.5475
44.7676	67.5516
44.7843	67.5559
44.8009	67.5604
44.8184	67.5654
44.835	67.5702
44.8516	67.5751
44.868	67.5798
44.8842	67.5843
44.9001	67.5892
44.9162	67.5938
44.9323	67.5986
44.9486	67.6035
44.9655	67.6082
44.9825	67.6134
44.9991	67.6188
45.0159	67.6245
45.0329	67.6302
45.0497	67.6357
45.0669	67.641
45.084	67.6461
45.1012	67.6509
45.1176	67.6556
45.1339	67.6602
45.1503	67.6645
45.1664	67.6689
45.182	67.6732
45.1984	67.6772
45.2149	67.6817
45.232	67.686
45.2492	67.6906
45.2655	67.6952
45.2824	67.6999
45.2994	67.7043
45.3164	67.7088
45.3333	67.7133
45.3498	67.7171
45.3656	67.7212
45.382	67.7252
45.3981	67.7293
45.4142	67.7336
45.4306	67.738
45.4475	67.7427
45.4651	67.748
45.4823	67.753
45.4992	67.7582
45.5158	67.7637
45.5332	67.7683
45.5507	67.7725
45.5678	67.7767
45.5841	67.7802
45.6	67.7842
45.6155	67.7873
45.6308	67.791
45.6466	67.7947
45.6635	67.7984
45.6802	67.8024
45.6973	67.8073
45.7148	67.8133
45.7319	67.8191
45.749	67.8253
45.7667	67.8305
45.7846	67.8357
45.8025	67.8402
45.8199	67.8445
45.8358	67.8485
45.8509	67.852
45.8665	67.8554
45.8826	67.8584
45.8983	67.8615
45.9141	67.8642
45.9305	67.8678
45.9477	67.8724
45.9645	67.8776
45.9811	67.8831
45.9981	67.8886
46.0154	67.8948
46.0334	67.9
46.0511	67.9046
46.0679	67.9098
46.0843	67.9155
46.0999	67.9203
46.116	67.9245
46.1324	67.9283
46.1489	67.9327
46.1657	67.937
46.1823	67.9412
46.1993	67.9464
46.2164	67.9517
46.2331	67.9564
46.2504	67.9608
46.2684	67.9651
46.2852	67.9695
46.3016	67.9735
46.3174	67.9766
46.3337	67.9799
46.3495	67.9833
46.3659	67.9863
46.3823	67.9893
46.3989	67.9932
46.4156	67.9968
46.4327	68.0013
46.4501	68.0059
46.4672	68.0106
46.4847	68.0151
46.502	68.0195
46.5195	68.0233
46.5366	68.0272
46.5527	68.0313
46.5683	68.0352
46.5839	68.0385
46.6	68.0418
46.6165	68.0448
46.6334	68.0484
46.65	68.0521
46.6669	68.0565
46.684	68.0607
46.7009	68.0658
46.7178	68.0701
46.7352	68.0742
46.7526	68.0788
46.7701	68.083
46.7867	68.087
46.8028	68.091
46.8184	68.0952
46.835	68.0994
46.8514	68.1037
46.8681	68.1073
46.8847	68.1112
46.9015	68.1149
46.9185	68.1188
46.9349	68.1226
46.9515	68.1268
46.9678	68.1299
46.9846	68.1332
47.0012	68.1363
47.0175	68.1393
47.0334	68.1427
47.0493	68.1464
47.0654	68.1501
47.0821	68.1544
47.0987	68.159
47.1155	68.1631
47.1325	68.1683
47.1496	68.1737
47.167	68.1787
47.1844	68.1832
47.2016	68.1874
47.2182	68.1917
47.2343	68.1959
47.2507	68.1994
47.2669	68.2026
47.2828	68.2062
47.2983	68.2094
47.3142	68.2122
47.3311	68.2159
47.348	68.22
47.3649	68.2242
47.3817	68.2283
47.3987	68.2328
47.4158	68.2371
47.4332	68.2413
47.4503	68.2452
47.4673	68.2488
47.4839	68.2526
47.5002	68.2558
47.5161	68.2591
47.5322	68.2622
47.5485	68.2651
47.5651	68.2676
47.5819	68.2708
47.5989	68.2744
47.6152	68.2783
47.6316	68.2826
47.6493	68.2869
47.6664	68.2912
47.6836	68.2951
47.6999	68.2987
47.7165	68.3027
47.7334	68.3066
47.7499	68.3107
47.766	68.3144
47.7819	68.318
47.7987	68.3215
47.8159	68.3256
47.8328	68.3298
47.8496	68.3343
47.8663	68.339
47.8834	68.3433
47.9011	68.3479
47.918	68.3518
47.9347	68.3555
47.9506	68.3592
47.9669	68.3631
47.983	68.3665
47.9994	68.3695
48.0157	68.3728
48.0325	68.3766
48.0491	68.3804
48.0657	68.384
48.0823	68.3878
48.0992	68.3919
48.1163	68.396
48.1338	68.3996
48.1506	68.4034
48.167	68.4076
48.1832	68.4112
48.1993	68.4153
48.2159	68.4195
48.2328	68.4239
48.2495	68.4282
48.2659	68.4327
48.2827	68.4371
48.2997	68.442
48.3165	68.446
48.3329	68.4498
48.3498	68.4537
48.3667	68.457
48.3833	68.4606
48.3994	68.4642
48.415	68.4677
48.4314	68.4711
48.4481	68.4745
48.4652	68.4776
48.4822	68.4816
48.499	68.4852
48.5156	68.4897
48.5326	68.494
48.5494	68.498
48.5669	68.5017
48.5842	68.5052
48.6017	68.5085
48.6188	68.512
48.6355	68.5155
48.6519	68.5184
48.6682	68.5218
48.6851	68.5244
48.7018	68.5272
48.7179	68.5302
48.7345	68.5332
48.7511	68.5367
48.7676	68.5409
48.7842	68.5453
48.801	68.5491
48.8182	68.5534
48.8356	68.557
48.8528	68.5608
48.8694	68.5647
48.8857	68.5683
48.9019	68.5724
48.9188	68.5758
48.9357	68.5786
48.9526	68.5809
48.969	68.5843
48.9856	68.5875
49.0019	68.5906
49.0183	68.5938
49.0348	68.5969
49.0516	68.5998
49.0682	68.6024
49.0847	68.605
49.1011	68.6084
49.1172	68.6116
49.1331	68.6151
49.1494	68.6181
49.1663	68.6217
49.1835	68.6253
49.2003	68.6288
49.2175	68.6328
49.2344	68.6366
49.2507	68.6408
49.2675	68.6447
49.2841	68.6485
49.3004	68.6513
49.317	68.6545
49.3335	68.6578
49.3491	68.6612
49.3652	68.6648
49.3813	68.6679
49.3977	68.6713
49.4145	68.6744
49.4318	68.6773
49.4486	68.6809
49.465	68.6849
49.4814	68.6889
49.498	68.6926
49.5146	68.6959
49.5312	68.6994
49.548	68.7025
49.5646	68.7055
49.5814	68.7093
49.5979	68.713
49.6143	68.7165
49.6311	68.7199
49.6486	68.7229
49.6659	68.7263
49.6831	68.7299
49.6999	68.7331
49.7163	68.7368
49.733	68.7401
49.7504	68.7424
49.7673	68.7449
49.7996	68.7488
49.8157	68.7515
49.8318	68.7538
49.8477	68.7564
49.864	68.7595
49.8807	68.7625
49.8978	68.7659
49.9153	68.7695
49.9326	68.7735
49.9498	68.7777
49.9669	68.7815
49.9841	68.7851
50.001	68.7883
50.0176	68.791
50.0337	68.7934
50.0493	68.7962
50.0652	68.7989
50.0813	68.8018
50.0978	68.8047
50.1141	68.8081
50.131	68.8117
50.1484	68.8157
50.1661	68.82
50.183	68.8241
50.2001	68.8282
50.2173	68.8315
50.2341	68.8348
50.2509	68.8383
50.267	68.8416
50.2831	68.8446
50.2994	68.8476
50.316	68.8503
50.3324	68.8534
50.3489	68.8567
50.366	68.8604
50.3834	68.8644
50.4008	68.8685
50.418	68.872
50.4346	68.8754
50.4512	68.8789
50.4681	68.8818
50.4842	68.8844
50.5004	68.8868
50.5162	68.8892
50.5319	68.8919
50.5485	68.8943
50.5651	68.8973
50.5818	68.9008
50.5991	68.904
50.6163	68.9076
50.6339	68.9115
50.6511	68.9155
50.6686	68.9192
50.6857	68.9227
50.7029	68.9257
50.7197	68.9285
50.7519	68.9327
50.7678	68.935
50.8005	68.939
50.817	68.9412
50.8334	68.9437
50.8502	68.9465
50.8672	68.95
50.8843	68.9537
50.9017	68.9572
50.9191	68.9603
50.9368	68.9633
50.9534	68.9664
50.9695	68.9692
50.9856	68.9718
51.0015	68.9746
51.0179	68.9771
51.0509	68.9811
51.0679	68.9836
51.0845	68.9867
51.1013	68.99
51.1183	68.9929
51.1351	68.9961
51.1523	68.9991
51.1692	69.0019
51.1853	69.0043
51.2014	69.0074
51.2173	69.0103
51.2329	69.0133
51.249	69.016
51.2654	69.0187
51.2821	69.0218
51.2989	69.0252
51.3158	69.0289
51.3328	69.0331
51.3496	69.0373
51.3673	69.0406
51.3842	69.044
51.4011	69.0467
51.4172	69.0498
51.4336	69.0525
51.4495	69.0553
51.4656	69.0586
51.4817	69.0614
51.4976	69.0636
51.5144	69.0663
51.5314	69.0694
51.5482	69.0728
51.5646	69.0767
51.5815	69.0801
51.5986	69.0841
51.6158	69.0874
51.6324	69.0897
51.6488	69.0923
51.6652	69.0953
51.6816	69.0984
51.6978	69.1018
51.7141	69.1051
51.7305	69.1078
51.7477	69.1108
51.765	69.1135
51.7825	69.1167
51.7993	69.12
51.8157	69.1236
51.8329	69.1262
51.8502	69.1288
51.8677	69.1313
51.8994	69.1355
51.9316	69.1395
51.9642	69.1438
51.9808	69.1465
51.9982	69.15
52.0154	69.1532
52.0325	69.1561
52.0497	69.1592
52.067	69.1625
52.0845	69.166
52.1017	69.1685
52.1183	69.1712
52.1339	69.1736
52.1495	69.1761
52.1818	69.1806
52.1979	69.1832
52.2145	69.1856
52.2314	69.1887
52.2488	69.1919
52.2657	69.1958
52.2828	69.1993
52.3003	69.2029
52.3176	69.2058
52.3348	69.2087
52.3512	69.2114
52.3673	69.2139
52.3829	69.2163
52.399	69.2186
52.4152	69.2214
52.4482	69.226
52.4651	69.2289
52.4825	69.2323
52.4996	69.2356
52.5165	69.2388
52.5337	69.2422
52.5511	69.2451
52.568	69.248
52.6005	69.2526
52.6324	69.2567
52.6486	69.2591
52.665	69.2614
52.698	69.2659
52.7155	69.2684
52.7323	69.2716
52.7489	69.2749
52.7661	69.2778
52.7832	69.2808
52.8004	69.2835
52.8336	69.2879
52.8492	69.2907
52.8818	69.2955
52.9153	69.2997
52.9322	69.3023
52.9491	69.3056
52.9665	69.309
52.9839	69.3127
53.0013	69.316
53.0193	69.3188
53.0366	69.3222
53.0541	69.3246
53.087	69.3292
53.1185	69.3329
53.151	69.3366
53.1838	69.3413
53.2004	69.3439
53.2174	69.347
53.234	69.3502
53.2511	69.3526
53.2686	69.3556
53.2854	69.3582
53.3024	69.3605
53.3339	69.3645
53.3663	69.3687
53.3999	69.3732
53.4167	69.3764
53.4333	69.3793
53.4503	69.3825
53.4674	69.3852
53.4846	69.3882
53.5017	69.3909
53.5186	69.3931
53.5509	69.3969
53.5826	69.4001
53.6149	69.4034
53.6312	69.4063
53.6478	69.4087
53.6648	69.411
53.6816	69.4134
53.6986	69.4164
53.7159	69.419
53.7323	69.4223
53.7493	69.425
53.7661	69.4278
53.7822	69.4301
53.8153	69.4337
53.8314	69.4361
53.8483	69.4383
53.8649	69.4406
53.8816	69.4432
53.9145	69.448
53.9318	69.4505
53.9488	69.4532
53.9658	69.4562
53.9827	69.4591
54.0001	69.4616
54.017	69.4643
54.0333	69.4669
54.0499	69.4695
54.0659	69.472
54.0993	69.4761
54.1163	69.4784
54.1332	69.4809
54.1667	69.4853
54.1838	69.4878
54.2008	69.4903
54.2337	69.4945
54.2501	69.4968
54.2826	69.5007
54.3147	69.5047
54.331	69.5076
54.3474	69.5104
54.364	69.5133
54.3812	69.5165
54.3988	69.5195
54.4162	69.5224
54.4335	69.526
54.4498	69.5293
54.4664	69.5325
54.4828	69.535
54.4997	69.538
54.5166	69.5403
54.5329	69.5429
54.5663	69.5476
54.5829	69.5506
54.5992	69.5533
54.6162	69.5556
54.6496	69.5606
54.6835	69.5647
54.7159	69.569
54.749	69.5733
54.7828	69.5775
54.7999	69.58
54.8174	69.5825
54.8342	69.5853
54.8511	69.588
54.8683	69.5907
54.9023	69.5954
54.935	69.5996
54.9684	69.6032
55.0013	69.6064
55.0342	69.611
55.0508	69.6139
55.0846	69.6187
55.1017	69.621
55.1189	69.6236
55.1362	69.6262
55.1532	69.6288
55.1695	69.6313
55.1854	69.6337
55.219	69.637
55.2527	69.6405
55.2844	69.6441
55.3168	69.6472
55.3658	69.651
55.3981	69.6544
55.4142	69.6567
55.4304	69.6594
55.4475	69.6618
55.465	69.6645
55.4823	69.6674
55.4997	69.6707
55.5166	69.6744
55.5332	69.6779
55.5502	69.6813
55.567	69.6843
55.584	69.6868
55.6167	69.6912
55.6328	69.6936
55.6487	69.6961
55.6648	69.6987
55.6983	69.7024
55.7327	69.7069
55.7659	69.7117
55.7989	69.716
55.8327	69.7189
55.8652	69.7225
55.8979	69.7266
55.9149	69.729
55.9497	69.7331
55.9837	69.7372
55.9994	69.7399
56.0326	69.7436
56.0664	69.7467
56.0989	69.7504
56.1315	69.7543
56.1642	69.7585
56.181	69.7611
56.1985	69.7635
56.2159	69.7663
56.2333	69.7693
56.2507	69.7723
56.2853	69.7762
56.3182	69.7798
56.3664	69.7834
56.3984	69.7859
56.4319	69.7891
56.4659	69.7933
56.4997	69.7979
56.5168	69.8003
56.5504	69.8044
56.5826	69.8081
56.5993	69.8104
56.6155	69.813
56.6318	69.8152
56.6487	69.8179
56.6656	69.8204
56.6832	69.8232
56.7002	69.8263
56.7173	69.8289
56.7336	69.8313
56.7504	69.8336
56.7831	69.8368
56.815	69.8401
56.8484	69.8442
56.8822	69.8489
56.8998	69.8512
56.9354	69.8561
56.9692	69.8597
57.0019	69.8627
57.0657	69.8649
57.0984	69.8677
57.1156	69.8701
57.1499	69.8747
57.1672	69.8776
57.1849	69.8805
57.2021	69.8832
57.2353	69.8875
57.2682	69.8918
57.3006	69.8956
57.3345	69.8992
57.3685	69.9036
57.3854	69.9064
57.4025	69.9092
57.436	69.9131
57.4696	69.9158
57.5016	69.9182
57.5487	69.9207
57.5819	69.924
57.616	69.9288
57.6507	69.9335
57.6682	69.9359
57.685	69.9383
57.7174	69.9422
57.7494	69.9449
57.7806	69.9477
57.8138	69.9509
57.8307	69.9533
57.8473	69.9557
57.8645	69.9581
57.8819	69.9607
57.8996	69.9634
57.9339	69.9671
57.9664	69.971
57.9988	69.9747
58.0326	69.977
58.0667	69.9801
58.1	69.984
58.1343	69.9869
58.1675	69.9892
58.199	69.9917
58.231	69.9945
58.2636	69.9976
58.2807	70.0001
58.2981	70.0028
58.315	70.0056
58.3322	70.0086
58.3493	70.012
58.3672	70.0143
58.4018	70.0182
58.4338	70.0219
58.4816	70.0252
58.5141	70.0285
58.5311	70.0309
58.5484	70.0338
58.5656	70.0369
58.5827	70.0395
58.6004	70.0421
58.6181	70.0446
58.6513	70.0482
58.6826	70.0509
58.7312	70.0544
58.7648	70.0586
58.7818	70.0613
58.7991	70.0645
58.8161	70.068
58.8336	70.0706
58.8686	70.0744
58.9004	70.0769
58.948	70.0798
58.9809	70.0826
59.0161	70.0874
59.0337	70.0906
59.0519	70.0939
59.0696	70.0963
59.1044	70.1004
59.1842	70.103
59.25	70.107
59.2843	70.1115
59.3017	70.1139
59.3368	70.1179
59.3703	70.1225
59.4021	70.1249
59.4507	70.1275
59.4837	70.13
59.5167	70.1335
59.5508	70.1374
59.5851	70.1416
59.618	70.1453
59.6504	70.1483
59.6831	70.1514
59.7164	70.1545
59.7499	70.1576
59.7842	70.161
59.818	70.1638
59.8661	70.1663
59.9137	70.1696
59.9475	70.173
59.9813	70.1772
60.0156	70.1814
60.0488	70.1849
60.0819	70.1881
60.1149	70.1907
60.1487	70.1931
60.1825	70.197
60.2165	70.2008
60.2513	70.2037
60.284	70.2063
60.3332	70.2095
60.3823	70.2123
60.4159	70.2155
60.4492	70.2195
60.4665	70.2219
60.5008	70.2251
60.5337	70.229
60.5659	70.2314
60.615	70.2351
60.6481	70.2389
60.6819	70.243
60.6992	70.2455
60.7169	70.2481
60.734	70.2511
60.7671	70.2546
60.8011	70.2578
60.8336	70.2607
60.8663	70.2631
60.916	70.2669
60.9498	70.2697
60.9836	70.2724
61.0159	70.2755
61.0497	70.2788
61.0831	70.2819
61.1164	70.2856
61.1333	70.2879
61.1673	70.2904
61.2019	70.2929
61.235	70.2956
61.2682	70.2989
61.3017	70.3013
61.3351	70.3053
61.3683	70.3088
61.4018	70.3114
61.4357	70.3141
61.4686	70.3166
61.5188	70.3194
61.5519	70.3222
61.5838	70.3252
61.6168	70.328
61.6501	70.3306
61.6833	70.3344
61.7159	70.3378
61.7494	70.3417
61.784	70.3451
61.8011	70.3476
61.8338	70.3519
61.8677	70.3554
61.901	70.3581
61.9498	70.3612
62.0156	70.3638
62.0489	70.3661
62.0819	70.3692
62.1311	70.3729
62.1649	70.3765
62.1981	70.3801
62.2322	70.3835
62.2672	70.3864
62.3169	70.3897
62.3988	70.3923
62.4316	70.3948
62.4656	70.398
62.4999	70.4006
62.534	70.4039
62.5679	70.4064
62.6169	70.4092
62.6647	70.4126
62.6975	70.4156
62.7315	70.4197
62.7487	70.4221
62.7658	70.4251
62.7828	70.4277
62.8171	70.4318
62.8503	70.4346
62.8828	70.4373
62.9156	70.4398
62.9658	70.4436
62.9998	70.4467
63.0341	70.4492
63.1152	70.4518
63.1483	70.4541
63.1815	70.4577
63.1987	70.46
63.2166	70.4629
63.2517	70.4672
63.286	70.4702
63.3995	70.4726
63.4334	70.4752
63.4677	70.478
63.5027	70.4817
63.5365	70.4846
63.5848	70.4874
63.635	70.49
63.6852	70.4933
63.736	70.4966
63.7843	70.4995
63.8324	70.5024
63.866	70.5059
63.8998	70.5095
63.9337	70.5134
63.968	70.5168
64.0011	70.5192
64.0809	70.5221
64.1313	70.5251
64.1652	70.5285
64.1997	70.5314
64.2494	70.5346
64.2814	70.5372
64.3489	70.5407
64.3827	70.5444
64.417	70.547
64.4672	70.5495
64.5309	70.5522
64.5813	70.5558
64.6156	70.5599
64.6501	70.5638
64.6853	70.5665
64.7332	70.5688
64.814	70.5719
64.848	70.5758
64.8823	70.58
64.9	70.5824
64.9348	70.586
64.9668	70.5884
64.999	70.5912
65.0316	70.5935
65.0657	70.5967
65.0999	70.6011
65.1348	70.6052
65.1691	70.6075
65.2325	70.6104
65.2993	70.6137
65.3341	70.6169
65.3689	70.6196
65.515	70.6221
65.5488	70.625
65.5834	70.6287
65.6185	70.632
65.652	70.6351
65.7009	70.638
65.7506	70.6406
65.7836	70.643
65.8176	70.6455
65.8512	70.6479
65.901	70.6504
65.9492	70.6528
65.9988	70.6565
66.0328	70.6601
66.0674	70.6643
66.1017	70.6668
66.2144	70.6692
66.2645	70.6726
66.2988	70.6756
66.3326	70.6781
66.3981	70.6804
66.4655	70.6827
66.5161	70.6856
66.5502	70.6879
66.5826	70.6902
66.6484	70.693
66.6818	70.696
66.7158	70.6989
66.7501	70.7021
66.7847	70.7051
66.833	70.708
66.9315	70.7111
66.9646	70.7134
66.9999	70.7165
67.0337	70.7193
67.0664	70.7219
67.1158	70.7245
67.1653	70.7275
67.1987	70.7301
67.2498	70.7327
67.2822	70.7354
67.3322	70.7384
67.3826	70.7417
67.3994	70.744
67.4337	70.7474
67.469	70.7497
67.6342	70.7529
67.6848	70.7561
67.7363	70.7585
67.8185	70.7614
67.8678	70.764
67.9177	70.7673
67.9674	70.7706
68.0162	70.7732
68.0503	70.7755
68.0841	70.7783
68.1172	70.7813
68.1509	70.7838
68.2008	70.7862
68.281	70.7889
68.3478	70.7913
68.3807	70.7942
68.4143	70.7965
68.4484	70.7991
68.4819	70.8023
68.5156	70.8051
68.5508	70.8075
68.6006	70.8099
68.7644	70.8136
68.7993	70.8177
68.833	70.8207
68.8676	70.8233
68.98	70.826
69.0148	70.829
69.0496	70.8333
69.0829	70.8369
69.1172	70.8401
69.183	70.8429
69.2323	70.8456
69.2666	70.8479
69.3163	70.851
69.3823	70.8535
69.4486	70.8559
69.4827	70.8589
69.5175	70.8628
69.5699	70.8656
69.7688	70.8681
69.8353	70.8709
69.9176	70.874
69.968	70.8763
70.0345	70.8786
70.1154	70.8817
70.1664	70.8857
70.1998	70.8897
70.235	70.8928
70.301	70.8952
70.4476	70.8985
70.4819	70.9016
70.5326	70.904
70.5968	70.9065
70.6656	70.9102
70.6997	70.9131
70.7994	70.9156
70.8822	70.918
70.9161	70.9213
70.9513	70.9238
71.0981	70.9263
71.1321	70.9285
71.1658	70.9324
71.2012	70.935
71.2503	70.9378
71.2828	70.9407
71.3159	70.9434
71.367	70.9465
71.4002	70.9496
71.4994	70.9524
71.548	70.955
71.5992	70.9588
71.6345	70.9619
71.6865	70.9643
71.8347	70.9681
71.8692	70.9711
71.9381	70.9736
72.1185	70.9763
72.2165	70.9792
72.2818	70.9824
72.3159	70.9854
72.3507	70.9884
72.4011	70.9913
72.5815	70.9937
72.6476	70.9963
72.7136	70.9988
72.7645	71.0029
72.8158	71.0057
72.8828	71.0086
72.9654	71.0109
72.9995	71.0132
73.051	71.016
73.2314	71.0189
73.2821	71.0223
73.3166	71.0246
73.3656	71.0275
73.4155	71.03
73.4485	71.0323
73.4996	71.0348
73.5506	71.0371
73.633	71.0394
73.6666	71.0417
73.7175	71.0448
73.7859	71.0474
73.9509	71.0499
74.0195	71.0524
74.0685	71.0549
74.3157	71.0572
74.3666	71.0601
74.4006	71.0632
74.4342	71.0657
74.5481	71.0683
74.6323	71.0715
74.6653	71.0739
74.7488	71.077
74.7984	71.0798
74.8503	71.083
74.9002	71.0855
75.0643	71.0883
75.0997	71.0922
75.1345	71.0961
75.3152	71.0988
75.3495	71.1028
75.3838	71.1053
75.4339	71.108
75.532	71.1105
75.5663	71.113
75.6169	71.1159
75.7149	71.1184
75.7838	71.1206
75.8181	71.1233
76.051	71.1259
76.1025	71.1282
76.1678	71.1306
76.2682	71.1331
76.433	71.1357
76.5011	71.1384
76.5512	71.1411
76.7312	71.1435
76.7652	71.1461
76.8161	71.1488
77.0488	71.1513
77.1302	71.154
77.1642	71.1565
77.1991	71.1598
77.2341	71.1621
77.3972	71.1646
77.432	71.1678
77.4673	71.1703
77.5351	71.1727
77.667	71.1756
77.7358	71.1782
77.9001	71.1807
77.9349	71.1829
78.1501	71.1853
78.1858	71.1877
78.2364	71.1908
78.3833	71.1934
78.4842	71.1961
78.5489	71.1985
78.5998	71.2015
78.6516	71.2043
78.8976	71.2067
78.9477	71.2103
79.0322	71.213
79.1665	71.2153
79.282	71.218
79.316	71.2208
79.3672	71.2235
79.5646	71.226
79.5989	71.2283
79.6322	71.2309
79.6659	71.2332
79.733	71.2359
79.9158	71.2381
79.9835	71.2411
80.0346	71.2436
80.5006	71.2459
80.5989	71.2485
80.6672	71.2511
80.7008	71.2537
80.7345	71.2561
81.0473	71.2591
81.1162	71.2618
81.3138	71.2644
81.3665	71.2681
81.4008	71.2715
81.5982	71.274
81.6328	71.2769
81.6842	71.2796
81.7985	71.2827
81.8508	71.2866
81.9182	71.2892
81.9816	71.2869
82.0666	71.2892
82.1016	71.2921
82.1357	71.2944
82.2335	71.2922
82.3693	71.2946
82.5511	71.2976
82.7487	71.3001
82.7833	71.3034
82.8178	71.3061
83.05	71.3087
83.2493	71.3111
83.4822	71.3136
83.535	71.3169
83.7497	71.3196
83.8181	71.3223
83.9494	71.3252
84.1828	71.3279
84.2176	71.3304
84.4867	71.333
84.8655	71.3355
84.8993	71.338
84.9341	71.3409
84.985	71.3435
85.1654	71.3463
85.2328	71.3488
85.4664	71.351
85.5824	71.3535
85.8484	71.3564
85.9005	71.3593
85.95	71.3622
86.0496	71.3646
86.2666	71.3672
86.3346	71.3698
86.4851	71.3672
86.6354	71.3695
86.9507	71.3719
87.0178	71.3745
87.3644	71.3771
87.6839	71.3799
87.882	71.3824
87.9334	71.3856
88.0007	71.3881
88.1327	71.3906
88.2175	71.3929
88.3485	71.3953
88.3838	71.398
88.5495	71.3956
88.6353	71.3981
88.7189	71.4004
89.0997	71.4031
89.3145	71.4055
89.3662	71.4083
89.5324	71.4107
89.6652	71.408
89.7133	71.4053
89.7813	71.4085
89.8341	71.4115
90.0491	71.4142
90.1331	71.4165
90.2503	71.4198
90.3192	71.4225
90.3988	71.4198
90.5009	71.4225
90.6333	71.42
91.1827	71.4228
91.217	71.4251
91.2685	71.4275
91.5644	71.4299
91.6325	71.4329
91.8495	71.4357
91.9358	71.4381
92.0156	71.4351
92.1485	71.4379
92.2	71.4406
92.332	71.4433
92.6179	71.446
93.1004	71.4436
93.267	71.4467
93.3344	71.449
93.5493	71.4514
93.7833	71.4491
93.8651	71.4465
93.9491	71.4491
94.0177	71.4517
94.332	71.4543
94.4165	71.4574
94.6497	71.4604
94.7027	71.4632
94.8007	71.4595
94.8498	71.457
94.9182	71.4597
94.9865	71.4622
95.1522	71.4645
95.632	71.4674
95.8169	71.4697
95.901	71.4672
95.9643	71.4643
96.0483	71.4677
96.0833	71.4705
96.3336	71.4729
96.8348	71.4756
96.9659	71.4734
97.1036	71.4756
97.6646	71.4733
97.766	71.4759
98.1835	71.4789
98.4146	71.4819
98.4666	71.4846
98.5159	71.487
98.6496	71.4895
98.8333	71.4917
99.0517	71.4892
99.251	71.4869
99.5511	71.49
99.7146	71.4874
99.7814	71.485
99.882	71.4879
100.283	71.4903
100.398	71.4878
100.5	71.4906
100.551	71.4934
100.734	71.4961
100.833	71.4934
101.1	71.4896
101.132	71.4869
101.25	71.4899
101.301	71.493
101.384	71.4952
101.65	71.4982
101.685	71.5011
101.815	71.4984
102.264	71.4957
102.348	71.4985
102.383	71.5011
102.499	71.4988
102.547	71.4962
102.598	71.4985
102.65	71.5015
102.815	71.5043
102.85	71.5066
103.015	71.5039
103.083	71.5063
103.217	71.5031
103.602	71.5005
103.65	71.4981
103.799	71.5006
104.048	71.5029
104.199	71.5003
104.682	71.5027
104.733	71.5055
104.916	71.5082
105.15	71.5115
105.335	71.5089
105.4	71.5063
105.835	71.5086
105.966	71.5063
106.231	71.5091
106.302	71.5114
106.384	71.5085
106.416	71.5051
106.567	71.5083
106.666	71.5056
106.817	71.5081
107.25	71.5108
107.417	71.5078
107.586	71.5054
107.802	71.5028
107.967	71.506
108.433	71.5084
108.532	71.5057
108.667	71.5085
108.814	71.5058
108.899	71.5091
108.934	71.5116
109.116	71.5139
109.265	71.5112
109.367	71.5141
109.437	71.5164
109.485	71.5141
109.517	71.5109
109.751	71.5084
109.784	71.5061
109.934	71.5036
110.067	71.5068
110.231	71.5044
110.899	71.5019
111.016	71.5045
111.1	71.507
111.485	71.5095
111.835	71.5068
111.967	71.5045
112.167	71.5077
112.65	71.5052
112.699	71.5025
112.866	71.5051
112.981	71.5022
113.265	71.5047
113.317	71.5075
113.432	71.5042
113.569	71.5068
113.652	71.504
113.684	71.501
113.716	71.4988
113.933	71.4961
114.233	71.4987
114.381	71.4964
114.734	71.4991
114.816	71.4963
114.949	71.4991
115.018	71.5013
115.114	71.499
115.199	71.5015
115.45	71.504
115.565	71.5017
115.667	71.5044
115.784	71.5009
115.817	71.4983
116.201	71.4959
116.384	71.4983
116.483	71.4946
116.531	71.4922
117.15	71.4894
117.231	71.4871
117.333	71.4896
117.785	71.4921
117.902	71.4888
118.251	71.4862
118.484	71.4887
118.715	71.4864
118.866	71.4887
118.983	71.4864
119.282	71.4839
119.366	71.4867
119.416	71.4892
119.7	71.4868
119.765	71.4843
119.851	71.487
119.968	71.4845
120.017	71.4819
120.269	71.4795
120.385	71.4771
120.534	71.4794
120.698	71.4769
120.898	71.4744
121.115	71.472
121.233	71.4751
121.285	71.4775
121.382	71.4743
121.483	71.4773
121.536	71.4797
121.734	71.4822
121.833	71.4794
122.068	71.4769
122.1	71.4746
122.533	71.4718
123.133	71.4695
123.216	71.4672
123.515	71.4647
123.599	71.4672
123.965	71.4648
124.033	71.4676
124.186	71.4651
124.218	71.4627
124.319	71.46
124.751	71.4626
124.898	71.4598
125.166	71.4623
125.283	71.4591
125.315	71.4564
125.363	71.4536
125.431	71.456
125.614	71.4583
125.683	71.4612
125.868	71.4636
126	71.4613
126.031	71.459
126.151	71.4612
126.268	71.4584
126.317	71.4553
126.419	71.4521
126.483	71.4498
126.732	71.4472
126.834	71.4501
126.885	71.4525
126.966	71.4492
127.014	71.4464
127.215	71.444
127.333	71.4465
127.449	71.444
127.618	71.4417
127.681	71.439
127.766	71.4415
127.982	71.4441
128.25	71.4472
128.367	71.4447
128.399	71.4424
128.503	71.4447
128.619	71.442
128.685	71.4397
128.833	71.4374
128.933	71.4403
129.132	71.4379
129.299	71.4356
129.766	71.4325
129.983	71.4349
130.233	71.4325
130.485	71.4293
130.568	71.427
130.753	71.4241
130.834	71.4211
131.034	71.4242
131.165	71.4214
131.232	71.419
131.415	71.4217
132.348	71.4195
132.418	71.4218
132.534	71.4188
132.583	71.4164
132.702	71.4187
132.868	71.4163
132.984	71.4135
133.016	71.4112
133.481	71.4089
133.651	71.4061
133.683	71.4036
133.715	71.4013
133.816	71.4049
133.869	71.4076
133.918	71.4053
133.965	71.4015
133.997	71.3988
134.065	71.4012
134.301	71.4039
134.465	71.401
134.551	71.4035
134.635	71.4012
134.683	71.3982
135.269	71.4005
135.334	71.3982
135.382	71.3954
135.614	71.3927
136.499	71.39
136.784	71.3868
136.936	71.3844
137.002	71.3821
137.101	71.3794
137.482	71.3763
137.598	71.3738
137.698	71.3764
137.833	71.374
137.898	71.3715
137.984	71.3747
138.083	71.3722
138.13	71.3692
138.231	71.3726
138.265	71.376
138.449	71.3794
138.518	71.382
138.583	71.3787
138.615	71.3761
138.867	71.3733
139.168	71.3709
139.235	71.3679
139.299	71.3656
139.383	71.3679
139.733	71.3651
139.781	71.362
139.966	71.3595
140.134	71.3625
140.265	71.3593
140.315	71.357
140.567	71.3595
140.748	71.3571
140.918	71.3547
140.95	71.3523
141.234	71.3498
141.416	71.3468
141.551	71.3496
141.833	71.3525
141.966	71.3499
142.051	71.3469
142.382	71.3444
143.052	71.3421
143.085	71.3393
143.152	71.337
143.32	71.3346
143.418	71.3318
143.782	71.3294
144.133	71.3264
144.215	71.3239
144.601	71.3263
144.785	71.3286
144.899	71.3259
145.035	71.3282
145.118	71.3253
145.166	71.3219
145.567	71.3195
145.816	71.3168
145.881	71.3144
146.282	71.3113
146.331	71.309
146.999	71.3061
147.117	71.3088
147.219	71.3065
147.251	71.304
147.284	71.3009
147.502	71.298
147.601	71.2952
147.835	71.2977
147.966	71.2951
148.065	71.2925
148.283	71.2951
148.398	71.2926
148.649	71.2894
148.8	71.2921
148.867	71.2948
149.1	71.2923
149.269	71.2897
149.318	71.2875
149.367	71.2851
149.518	71.2824
149.583	71.2794
150.099	71.2769
150.231	71.2746
150.433	71.2718
150.667	71.2696
150.714	71.2667
150.85	71.2691
151.402	71.2667
151.433	71.2636
151.466	71.2613
151.552	71.2637
151.603	71.266
151.835	71.2637
152.035	71.2606
152.099	71.258
152.55	71.255
152.582	71.2526
152.683	71.2549
152.753	71.2573
152.8	71.2546
152.831	71.2521
152.864	71.2497
152.915	71.2521
152.95	71.2545
153.082	71.2522
153.283	71.2495
153.534	71.2462
153.566	71.2432
153.817	71.2408
153.967	71.238
154.233	71.2349
154.265	71.2324
154.716	71.2299
155.083	71.2324
155.382	71.2299
155.685	71.2276
155.803	71.2251
155.886	71.2226
155.935	71.2202
156.001	71.2177
156.151	71.2203
156.332	71.2175
156.432	71.215
156.514	71.2125
156.716	71.21
156.983	71.2076
157.133	71.2104
157.434	71.2077
157.465	71.2054
157.685	71.2024
157.733	71.1995
158.135	71.1971
158.199	71.1946
158.266	71.1969
158.533	71.1994
158.632	71.1967
158.682	71.1943
158.833	71.1912
158.897	71.1887
158.966	71.1914
159.018	71.1937
159.1	71.1908
159.148	71.1882
159.233	71.1908
159.615	71.1885
159.769	71.1857
159.801	71.1833
159.833	71.1806
160.218	71.1783
160.316	71.1758
160.532	71.1735
160.782	71.1711
160.95	71.1687
160.999	71.1658
161.248	71.1632
161.315	71.1658
161.367	71.1686
161.784	71.1718
161.936	71.1684
162.001	71.1655
162.069	71.1629
162.202	71.1606
162.3	71.1581
162.467	71.1607
162.615	71.1583
162.934	71.1559
163.017	71.1524
163.049	71.1501
163.15	71.1474
163.749	71.1448
163.984	71.1419
164.017	71.1391
164.268	71.136
164.352	71.1337
164.516	71.1312
164.584	71.1337
164.731	71.1312
165.165	71.1289
165.301	71.1318
165.368	71.1293
165.399	71.1269
165.447	71.1238
165.533	71.127
165.75	71.1296
165.834	71.1272
165.865	71.1249
166.101	71.1224
166.133	71.1199
166.385	71.1173
166.434	71.1145
166.501	71.1121
166.583	71.1098
166.7	71.1127
166.815	71.1099
166.881	71.1074
167.132	71.1047
167.249	71.1023
167.516	71.0994
167.582	71.0969
167.7	71.0996
167.966	71.0968
168.102	71.0993
168.235	71.0965
168.568	71.0933
168.684	71.0908
168.784	71.0933
168.899	71.0908
169.082	71.0878
169.268	71.0854
169.3	71.0826
169.348	71.0795
169.5	71.0819
169.849	71.0796
169.934	71.0824
170.033	71.0794
170.098	71.077
170.15	71.0794
170.203	71.0817
170.253	71.0789
170.284	71.0765
170.317	71.0727
170.35	71.0703
170.718	71.0677
170.935	71.0651
170.999	71.0627
171.433	71.0602
171.567	71.0626
171.699	71.0601
171.834	71.0628
171.983	71.0606
172.165	71.0583
172.417	71.0559
172.587	71.0529
172.634	71.05
172.817	71.0476
173.084	71.045
173.131	71.0421
173.3	71.0397
173.365	71.0367
173.683	71.0334
173.733	71.0308
173.764	71.0286
173.914	71.0314
173.966	71.0341
174.051	71.0364
174.201	71.0339
174.283	71.0314
174.368	71.034
174.469	71.0309
174.518	71.0275
174.769	71.0248
174.834	71.0218
175.05	71.0249
175.25	71.0224
175.332	71.0201
175.398	71.0178
175.599	71.0151
175.751	71.0177
175.85	71.0155
175.898	71.0132
176.149	71.0157
176.301	71.0127
176.332	71.0101
176.38	71.0076
176.45	71.0104
176.584	71.008
176.616	71.0052
176.818	71.0029
176.953	71.0005
177.017	70.9975
177.049	70.9952
177.15	70.998
177.266	70.9955
177.314	70.9931
177.434	70.9955
177.549	70.9929
177.684	70.9902
177.732	70.9871
177.867	70.9894
177.998	70.9869
178.099	70.9896
178.152	70.9922
178.368	70.9946
178.466	70.9917
178.684	70.9881
178.717	70.985
178.854	70.9872
178.951	70.9843
179.119	70.9817
179.399	70.9789
179.448	70.9763
179.665	70.9741
179.849	70.9717
180.1	70.9686
180.267	70.9712
180.433	70.969
180.617	70.9666
180.786	70.9639
180.835	70.9608
180.919	70.9585
181.151	70.9561
181.85	70.9534
181.915	70.9506
182.034	70.9535
182.133	70.9507
182.181	70.9483
182.301	70.9511
182.567	70.9488
182.616	70.9461
182.751	70.9491
182.851	70.9462
182.884	70.9434
183.101	70.9402
183.169	70.9376
183.301	70.9352
183.598	70.933
183.767	70.9303
183.849	70.928
183.966	70.9257
184.048	70.9233
184.15	70.9266
184.25	70.9239
184.297	70.921
184.4	70.9242
184.634	70.9267
184.782	70.9242
184.984	70.9217
185.285	70.9191
185.385	70.9165
185.466	70.9142
185.55	70.9164
185.781	70.9141
185.932	70.9118
186.1	70.9094
186.383	70.9064
186.431	70.9035
186.733	70.9058
187.02	70.9031
187.085	70.9005
187.135	70.8979
187.202	70.8955
187.318	70.8929
187.451	70.8905
187.566	70.888
187.685	70.8904
187.782	70.8881
187.848	70.8851
188.015	70.8879
188.15	70.8847
188.199	70.8817
188.299	70.884
188.35	70.8863
188.6	70.8892
188.699	70.8867
188.932	70.8844
189.035	70.8871
189.151	70.8843
189.183	70.8813
189.217	70.8786
189.601	70.876
189.802	70.8732
189.833	70.8709
189.88	70.8683
189.982	70.8708
190.268	70.8681
190.299	70.8656
190.382	70.8632
190.434	70.866
190.565	70.8636
190.718	70.866
190.799	70.8632
191.048	70.8605
191.151	70.8635
191.252	70.8612
191.3	70.8585
191.701	70.8555
191.816	70.858
191.868	70.8606
191.966	70.8575
191.998	70.8551
192.416	70.8523
192.699	70.8499
192.834	70.8525
193.117	70.8503
193.183	70.8475
193.368	70.8449
193.519	70.842
193.584	70.8397
193.635	70.8368
193.767	70.8346
193.867	70.8371
194.116	70.8348
194.232	70.8325
194.451	70.8297
194.483	70.8272
194.651	70.8303
194.749	70.8274
194.883	70.8309
195.1	70.8332
195.266	70.8309
195.435	70.8286
195.483	70.8259
195.852	70.8236
195.9	70.8202
196.068	70.8226
196.181	70.8198
196.399	70.817
196.466	70.8145
196.567	70.8114
196.631	70.809
196.768	70.8114
196.849	70.809
196.983	70.8114
197.349	70.8083
197.551	70.8052
197.583	70.8024
197.851	70.8
197.917	70.7976
198.099	70.8
198.133	70.8025
198.168	70.805
198.331	70.8027
198.433	70.8052
198.651	70.803
198.7	70.8007
198.749	70.7974
199.184	70.7997
199.366	70.7974
199.685	70.795
199.735	70.7927
199.819	70.7897
200.035	70.7875
200.349	70.7848
200.498	70.7825
200.766	70.7793
200.934	70.7819
201.016	70.7792
201.201	70.7818
201.601	70.7842
201.75	70.7815
201.952	70.7785
202.135	70.7763
202.335	70.7788
202.448	70.7761
202.681	70.7735
202.883	70.7705
203.034	70.773
203.117	70.7698
203.149	70.7671
203.302	70.7699
203.632	70.7671
203.883	70.7639
204.003	70.7662
204.101	70.7635
204.151	70.7612
204.349	70.7585
204.434	70.7611
204.582	70.7585
204.832	70.7562
205.151	70.7587
205.467	70.7613
205.902	70.7579
205.952	70.7554
206.018	70.7531
206.335	70.7504
206.4	70.7479
206.616	70.7455
206.715	70.7431
206.865	70.7462
207.033	70.7426
207.081	70.7402
207.217	70.7427
207.299	70.7403
207.434	70.7432
207.598	70.7404
207.919	70.7438
208.052	70.7406
208.084	70.7376
208.567	70.7401
208.716	70.7372
209.167	70.7339
209.198	70.731
209.246	70.7285
209.298	70.7313
209.333	70.7337
209.464	70.7311
209.548	70.734
209.584	70.7365
209.733	70.7335
209.883	70.731
210.052	70.7335
210.167	70.7304
210.321	70.7281
210.385	70.7254
210.418	70.7231
210.648	70.7205
210.716	70.7231
210.881	70.7206
211.816	70.7236
211.867	70.7263
212.016	70.7238
212.268	70.7215
212.468	70.7189
212.551	70.7166
212.817	70.7193
212.982	70.7162
213.099	70.7138
213.317	70.7111
213.365	70.7087
213.648	70.7063
213.75	70.7091
213.933	70.7116
214.066	70.7088
214.301	70.7064
214.334	70.7039
214.767	70.7016
214.901	70.7046
215.047	70.7021
215.167	70.7045
215.418	70.702
215.481	70.6995
215.583	70.7029
215.764	70.7002
215.85	70.703
216.067	70.7063
216.215	70.7038
216.336	70.7064
216.387	70.7034
216.418	70.7009
216.45	70.6978
216.685	70.695
216.852	70.6926
217.165	70.69
217.517	70.6875
217.599	70.6846
217.848	70.6822
217.931	70.686
217.966	70.6885
218.001	70.691
218.217	70.6933
218.418	70.6957
218.535	70.6931
218.652	70.6905
218.703	70.6882
218.768	70.6858
219.051	70.6881
219.085	70.6908
219.185	70.6881
219.232	70.6847
219.282	70.6824
219.498	70.6849
219.649	70.6822
219.867	70.6799
219.948	70.6775
220.016	70.68
220.084	70.6823
220.268	70.6847
220.35	70.6813
220.382	70.6787
220.519	70.681
220.617	70.6775
220.667	70.6749
220.918	70.6725
221.05	70.6696
221.2	70.6725
221.617	70.675
221.749	70.6727
221.901	70.6754
222	70.673
222.032	70.6708
222.199	70.6732
222.297	70.6755
222.35	70.679
222.499	70.6765
222.751	70.674
223.002	70.6709
223.085	70.6685
223.151	70.6657
223.699	70.6633
223.915	70.6606
224.383	70.6632
225.102	70.6609
225.933	70.6577
226.182	70.6554
226.317	70.6578
226.535	70.6604
226.665	70.6579
226.918	70.6549
226.95	70.6524
227.15	70.6497
227.599	70.6472
228.049	70.6446
228.166	70.648
228.201	70.651
228.331	70.6483
228.416	70.6511
228.451	70.6538
228.798	70.6511
228.901	70.654
229.034	70.6508
229.268	70.6476
229.334	70.6451
229.601	70.6477
229.749	70.645
229.916	70.6427
229.982	70.64
230.416	70.6376
230.6	70.6402
230.733	70.6428
230.818	70.6405
230.917	70.6381
231.386	70.6355
231.651	70.6387
232.016	70.6364
232.232	70.6334
232.297	70.6309
232.383	70.6338
232.616	70.6365
232.766	70.6388
232.966	70.6361
233.184	70.6337
233.217	70.6313
233.25	70.6288
233.666	70.6265
233.948	70.6242
234.033	70.6265
234.216	70.6242
234.285	70.6218
234.348	70.6192
234.449	70.6221
234.484	70.6246
234.615	70.6214
234.717	70.6239
234.948	70.6262
235.132	70.6286
235.184	70.6319
235.301	70.6289
235.35	70.626
235.436	70.6288
235.568	70.6258
235.751	70.6231
236.031	70.6207
236.45	70.6182
236.716	70.6157
236.833	70.6179
236.95	70.6203
237.419	70.6174
237.452	70.6151
237.552	70.6128
237.669	70.6103
237.951	70.6129
238.132	70.6104
238.348	70.613
238.667	70.6158
238.766	70.613
238.917	70.6154
239.066	70.6177
239.248	70.6146
239.368	70.6175
239.468	70.6145
239.533	70.6113
239.619	70.6143
239.735	70.6117
239.802	70.6094
239.933	70.6067
240.465	70.6042
240.615	70.6019
240.75	70.6051
240.882	70.6017
240.914	70.5993
240.999	70.6028
241.034	70.6052
241.234	70.6079
241.383	70.6053
241.803	70.6083
241.902	70.6058
241.952	70.6029
241.984	70.6006
242.033	70.5983
242.132	70.6014
242.167	70.6037
242.219	70.6061
242.298	70.6036
242.433	70.6061
242.532	70.6036
242.598	70.6012
243.049	70.5986
243.283	70.6016
243.668	70.5989
243.718	70.5961
243.952	70.5933
244.184	70.5908
244.799	70.5882
244.847	70.5857
244.932	70.5886
244.984	70.5912
245.167	70.5935
245.217	70.5964
245.332	70.5936
245.434	70.5959
245.668	70.5982
245.802	70.5957
245.835	70.5933
245.936	70.5907
246.201	70.588
246.283	70.5857
246.497	70.5834
246.582	70.5865
246.835	70.589
246.917	70.5867
246.949	70.5838
246.998	70.5815
247.265	70.584
247.317	70.5865
247.466	70.5841
247.665	70.5808
247.804	70.5832
247.9	70.5809
248.002	70.5836
248.135	70.5806
248.185	70.5782
248.334	70.5806
248.416	70.5829
248.45	70.5852
248.649	70.5827
248.865	70.5804
249.451	70.5831
249.8	70.5806
249.985	70.5781
250.253	70.5755
250.335	70.573
250.567	70.5754
250.649	70.573
250.865	70.5707
251.467	70.5734
251.567	70.5758
251.65	70.5785
251.865	70.5761
251.935	70.5787
252.052	70.5754
252.083	70.5728
252.516	70.5705
253.015	70.5676
253.184	70.5651
253.231	70.5624
253.333	70.5652
253.497	70.5628
253.566	70.5652
253.618	70.568
253.715	70.5657
253.834	70.568
253.933	70.5657
254.069	70.5685
254.153	70.5655
254.184	70.5622
254.216	70.5594
254.734	70.5618
254.965	70.5596
255.182	70.5618
255.349	70.5595
255.467	70.5618
255.598	70.5592
255.7	70.5621
255.734	70.5648
255.933	70.562
256.386	70.5594
256.437	70.5569
256.485	70.5544
256.551	70.5514
256.834	70.5546
256.998	70.5522
257.449	70.5495
257.617	70.5472
257.681	70.5448
257.75	70.5477
257.834	70.55
257.95	70.5524
258.002	70.5551
258.1	70.552
258.148	70.5494
258.217	70.5522
258.286	70.5546
258.35	70.551
258.52	70.554
258.618	70.5511
258.8	70.5482
258.968	70.551
259.064	70.5482
259.483	70.5457
259.616	70.5488
259.652	70.5514
259.719	70.5489
259.75	70.5463
259.781	70.542
259.935	70.5443
260.117	70.547
260.249	70.5437
260.5	70.5406
260.802	70.5381
260.868	70.5352
260.916	70.5329
261.033	70.5361
261.084	70.5387
261.198	70.5361
261.316	70.5387
262.149	70.5412
262.417	70.5441
262.552	70.5409
262.585	70.5383
262.617	70.536
263.051	70.5337
263.282	70.5312
263.667	70.5284
263.715	70.5258
263.834	70.5281
264.399	70.5256
264.518	70.5283
264.836	70.5258
265.184	70.5288
265.349	70.5262
265.816	70.5234
266.017	70.5212
266.114	70.5188
266.182	70.5213
266.25	70.5237
266.35	70.526
266.5	70.5233
266.548	70.5206
266.634	70.5231
266.768	70.5202
266.986	70.5178
267.035	70.515
267.184	70.5125
267.334	70.5151
267.401	70.5176
267.483	70.5152
267.583	70.5124
267.665	70.5098
268.017	70.5132
268.198	70.5107
268.282	70.513
268.349	70.5153
268.467	70.5179
268.818	70.5146
268.901	70.5119
269.251	70.5094
269.333	70.5066
269.434	70.5089
269.749	70.5066
269.917	70.504
270.015	70.5015
270.784	70.5044
270.836	70.5071
270.903	70.5039
270.95	70.5003
271.218	70.4979
271.535	70.5003
271.616	70.4971
271.663	70.4948
271.749	70.4972
272.082	70.4942
272.216	70.4976
272.364	70.4952
272.448	70.4976
272.501	70.4999
272.815	70.4975
272.918	70.5002
273.034	70.497
273.066	70.493
273.099	70.4898
273.469	70.4874
273.635	70.4902
273.734	70.4866
273.781	70.4841
273.932	70.4866
274.184	70.4839
274.433	70.4806
274.6	70.4837
274.634	70.4866
274.966	70.4895
275.017	70.4918
275.287	70.4884
275.335	70.4852
275.403	70.4826
275.668	70.485
275.735	70.4876
275.85	70.4842
275.899	70.4818
275.965	70.4795
276.483	70.4761
276.651	70.4783
276.799	70.4807
276.852	70.4832
276.952	70.4806
276.983	70.478
277.031	70.4755
277.102	70.4786
277.234	70.4756
277.265	70.4733
277.335	70.4758
277.486	70.4721
277.519	70.4698
277.618	70.4669
277.8	70.4691
277.966	70.4716
278.181	70.4692
278.267	70.4719
278.365	70.4689
278.465	70.4715
278.501	70.4755
278.537	70.4782
278.603	70.4752
278.633	70.4709
278.664	70.4681
278.767	70.4706
278.801	70.4731
278.983	70.4754
279.133	70.4729
279.27	70.4706
279.366	70.4682
279.72	70.4656
279.751	70.4631
279.799	70.4606
279.899	70.4634
279.952	70.4661
280.033	70.4634
280.064	70.4611
280.2	70.4639
280.284	70.4611
280.348	70.4586
280.434	70.4563
280.633	70.4587
281.049	70.4612
281.251	70.4637
281.302	70.4664
281.403	70.4635
281.435	70.4609
281.485	70.4584
282.116	70.4559
282.549	70.4531
282.614	70.4506
282.683	70.4531
282.934	70.4563
283.201	70.4536
283.233	70.4513
283.297	70.4488
283.366	70.4517
283.401	70.4543
283.501	70.4514
283.534	70.449
283.751	70.4462
283.966	70.4437
284.232	70.4406
284.681	70.4383
284.783	70.4412
285.032	70.4439
285.085	70.4465
285.285	70.4489
285.351	70.4465
285.416	70.4434
285.501	70.4467
285.633	70.4432
285.683	70.4409
285.787	70.4432
285.885	70.4408
285.951	70.4383
286.083	70.4359
286.166	70.4387
286.218	70.441
286.333	70.4383
286.398	70.436
286.532	70.4337
286.848	70.4315
287.184	70.4339
287.517	70.4316
287.735	70.429
288.102	70.4267
288.335	70.429
288.816	70.4266
289	70.4291
289.132	70.4268
289.349	70.4292
289.549	70.4269
289.65	70.4291
289.769	70.4263
289.801	70.423
289.834	70.4198
290.267	70.4171
290.315	70.4147
290.934	70.4121
290.981	70.4094
291.067	70.412
291.316	70.4154
291.602	70.418
291.802	70.4205
291.918	70.4176
291.951	70.4149
292.202	70.412
292.616	70.4089
293.05	70.4059
293.115	70.4032
293.316	70.4007
293.432	70.4039
293.484	70.4067
293.666	70.4038
293.902	70.4061
294.019	70.4035
294.154	70.4009
294.235	70.3979
294.285	70.3949
294.499	70.3926
294.55	70.3959
294.585	70.3989
294.715	70.3958
294.747	70.393
294.914	70.3965
294.966	70.3995
295.252	70.4022
295.351	70.3986
295.398	70.3959
295.517	70.3981
295.718	70.4012
295.834	70.3987
295.881	70.396
295.985	70.3984
296.117	70.3949
296.386	70.3926
296.452	70.3902
296.518	70.3878
297.201	70.3854
297.248	70.3824
297.401	70.3847
297.499	70.3818
297.547	70.3792
297.615	70.3816
297.651	70.3839
297.734	70.3863
297.885	70.3892
297.999	70.3865
298.2	70.3832
298.37	70.3859
298.651	70.3833
298.834	70.3861
298.931	70.3826
299.083	70.3849
299.199	70.3824
299.601	70.3801
300.319	70.3773
300.368	70.3744
300.452	70.3719
301.166	70.3692
301.284	70.3719
301.401	70.3691
301.448	70.3664
301.55	70.3693
301.817	70.3721
302.251	70.3749
302.401	70.3716
302.485	70.3691
302.617	70.3667
302.849	70.3637
302.935	70.3661
302.986	70.3685
303.052	70.3656
303.083	70.3632
303.114	70.3605
303.548	70.3577
303.934	70.3602
304.266	70.3576
304.385	70.3599
304.501	70.3566
304.55	70.3541
304.653	70.3569
304.769	70.3543
304.901	70.352
305.032	70.3547
305.084	70.3576
305.433	70.3547
305.666	70.352
305.899	70.3497
306.067	70.3522
306.183	70.3547
306.366	70.3522
306.601	70.3494
306.719	70.3471
306.802	70.3447
306.886	70.3424
306.984	70.34
307.167	70.343
307.332	70.3404
307.415	70.3377
307.497	70.3353
307.834	70.3383
308.101	70.3413
308.334	70.3436
308.551	70.3463
308.668	70.3425
308.701	70.3388
308.733	70.3364
308.836	70.3391
309.134	70.3361
309.734	70.3337
309.768	70.3314
309.8	70.3288
309.848	70.3262
309.933	70.3287
309.985	70.3316
310.065	70.3292
310.113	70.3267
310.182	70.329
310.217	70.332
310.549	70.3292
310.668	70.3318
310.801	70.3287
310.834	70.3256
311.051	70.323
311.318	70.3261
311.387	70.3284
311.451	70.3252
311.499	70.3218
311.799	70.3247
311.851	70.3276
311.935	70.3253
311.982	70.3219
312.15	70.3242
312.248	70.3218
312.315	70.3241
312.35	70.3266
312.401	70.3299
312.534	70.3269
312.567	70.3245
312.616	70.322
312.751	70.3244
312.919	70.3219
313.071	70.319
313.117	70.3152
313.168	70.3127
313.365	70.3104
313.433	70.3139
313.467	70.3164
313.6	70.3142
313.632	70.3113
313.698	70.3088
313.799	70.3114
314.136	70.3137
314.186	70.3114
314.217	70.3081
314.249	70.3045
314.281	70.3022
314.383	70.3059
314.435	70.3086
314.583	70.3115
314.619	70.3141
314.717	70.3115
314.765	70.3089
314.852	70.3116
315	70.3085
315.12	70.3112
315.269	70.3089
315.335	70.3063
315.401	70.3039
315.5	70.3064
315.568	70.3087
315.65	70.3064
315.898	70.3037
315.949	70.3014
316.251	70.3047
316.383	70.3018
316.415	70.2989
316.535	70.3014
316.751	70.3039
316.85	70.3013
317.052	70.299
317.101	70.296
317.319	70.2937
317.368	70.2914
317.502	70.2888
317.566	70.2863
317.685	70.2889
317.966	70.2916
318.134	70.2892
318.35	70.292
319.05	70.2952
319.219	70.2922
319.268	70.289
319.551	70.2861
319.834	70.2837
319.882	70.2811
319.998	70.2785
320.184	70.2813
320.267	70.2788
320.348	70.2765
320.451	70.2791
320.533	70.2768
320.667	70.2795
321.016	70.2772
321.152	70.2798
321.251	70.2771
321.485	70.2748
321.817	70.2773
321.869	70.28
321.95	70.2772
321.998	70.2749
322.198	70.2724
322.316	70.2748
322.432	70.2725
322.65	70.2702
322.697	70.2677
322.765	70.2703
322.867	70.2726
322.984	70.2749
323.101	70.2723
323.132	70.2698
323.165	70.2673
323.25	70.2695
323.383	70.2662
323.538	70.2689
323.636	70.266
323.668	70.2633
323.751	70.2608
323.849	70.2586
323.949	70.2613
324.019	70.2636
324.132	70.2608
324.316	70.2581
324.634	70.2604
324.782	70.2581
324.95	70.2609
325.082	70.2631
325.168	70.2654
325.403	70.2626
325.484	70.26
325.819	70.2573
325.852	70.2548
325.933	70.252
326.3	70.2547
326.45	70.2524
326.5	70.2498
326.55	70.2475
326.599	70.245
326.717	70.2474
327.082	70.2451
327.15	70.2475
327.402	70.2504
327.504	70.2481
327.535	70.245
327.566	70.2411
327.617	70.2385
327.902	70.2409
328.331	70.2433
328.382	70.2459
328.668	70.2432
328.699	70.2403
328.834	70.2428
328.949	70.2405
329.067	70.2433
329.101	70.2457
329.199	70.2427
329.448	70.2402
329.533	70.2429
329.684	70.2391
329.718	70.2367
329.918	70.2343
330.018	70.2316
330.133	70.2291
330.2	70.2315
330.252	70.2343
330.351	70.2318
330.398	70.2287
330.85	70.226
331.049	70.2235
331.199	70.2265
331.234	70.2292
331.301	70.2315
332.002	70.2289
332.036	70.2265
332.117	70.2241
332.301	70.2267
332.533	70.224
332.615	70.2217
332.866	70.2191
333.116	70.2165
333.267	70.2197
333.834	70.2168
333.883	70.214
334.22	70.2117
334.283	70.2093
334.452	70.2115
334.998	70.209
335.116	70.2116
335.282	70.2092
335.384	70.2115
335.567	70.2138
335.732	70.2114
335.935	70.209
335.967	70.2057
336.154	70.208
336.235	70.2055
336.369	70.2027
336.449	70.2005
336.534	70.2031
336.665	70.1994
337.017	70.197
337.116	70.1945
337.285	70.197
337.366	70.1942
337.432	70.1967
337.969	70.1994
338.086	70.1967
338.402	70.1944
338.748	70.1916
339.016	70.1941
339.15	70.1917
339.432	70.1893
339.567	70.1915
339.866	70.1888
340.151	70.1857
340.369	70.1832
340.552	70.1809
340.735	70.1834
340.849	70.1809
340.899	70.1786
341.299	70.1762
341.4	70.1787
341.565	70.1759
341.632	70.1785
341.701	70.181
341.816	70.1832
341.902	70.1859
341.951	70.1832
341.999	70.1804
342.153	70.1827
342.25	70.1798
342.518	70.1771
342.602	70.1745
342.699	70.1721
342.799	70.1746
343.032	70.1719
343.081	70.1694
343.147	70.1671
343.299	70.1699
343.534	70.1725
343.65	70.17
344.217	70.1677
344.301	70.1649
344.735	70.1624
344.934	70.1649
345.15	70.1674
345.317	70.1651
345.417	70.1623
345.731	70.1601
345.833	70.1628
346.033	70.1659
346.181	70.1634
346.286	70.1665
346.387	70.1639
346.418	70.1603
346.449	70.157
346.5	70.1545
346.585	70.157
346.918	70.1545
346.983	70.152
347.084	70.1495
347.416	70.1525
347.518	70.1499
347.549	70.1469
347.581	70.1438
347.682	70.1465
347.718	70.1497
347.817	70.147
347.848	70.1447
347.916	70.1473
347.951	70.1509
347.987	70.1534
348.099	70.1503
348.235	70.1528
348.4	70.1551
348.454	70.1579
348.552	70.1549
348.585	70.152
348.635	70.1496
348.752	70.1469
349.083	70.1492
349.216	70.1465
349.248	70.144
349.348	70.1464
349.685	70.1437
349.718	70.1409
349.782	70.1382
350.134	70.1409
350.382	70.1381
350.484	70.1417
350.635	70.1388
350.686	70.1361
350.852	70.1326
350.902	70.1299
351.218	70.1328
351.301	70.1353
351.4	70.1328
351.465	70.1296
351.617	70.1321
352.015	70.1295
352.133	70.1326
352.167	70.1349
352.368	70.1373
352.45	70.1344
352.499	70.1318
352.734	70.1287
353.052	70.1261
353.103	70.1235
353.151	70.1204
353.882	70.1179
354.149	70.1152
354.233	70.1182
354.866	70.1156
354.952	70.1181
355.268	70.1154
355.815	70.1132
355.865	70.1109
356.117	70.1133
356.282	70.111
356.699	70.1087
356.969	70.1062
357.07	70.1037
357.219	70.1012
357.317	70.0987
357.484	70.1014
357.583	70.0988
357.648	70.0959
357.832	70.0989
357.9	70.1014
358.049	70.099
358.416	70.102
358.45	70.1047
358.75	70.1012
358.868	70.1036
359.001	70.1013
359.034	70.0988
359.251	70.0956
359.351	70.0932
359.567	70.096
359.716	70.0933
359.816	70.0908
359.965	70.0881
360.383	70.0855
360.431	70.0825
360.516	70.0849
360.568	70.0874
360.734	70.0906
360.851	70.0883
360.882	70.086
361.101	70.0832
361.235	70.0859
361.386	70.0836
361.717	70.086
361.866	70.0835
362.065	70.0805
362.184	70.083
362.517	70.0806
362.565	70.078
362.783	70.0809
363.202	70.0781
363.268	70.0757
363.568	70.0729
363.666	70.0707
364.284	70.0683
364.349	70.0659
364.501	70.0683
364.751	70.0707
364.934	70.0735
365.168	70.0762
365.285	70.073
365.318	70.0698
365.35	70.0673
365.535	70.0697
365.685	70.0671
365.783	70.0647
366.401	70.0617
366.448	70.0583
366.601	70.0608
366.731	70.0582
366.817	70.0614
367.216	70.0589
367.45	70.0566
367.651	70.0537
367.985	70.0562
368.133	70.053
368.95	70.0557
369.101	70.0581
369.184	70.0555
369.249	70.053
369.367	70.0558
369.518	70.0533
369.753	70.0499
369.802	70.0472
369.834	70.0445
369.867	70.0423
370.017	70.0451
370.067	70.0479
370.349	70.0455
370.584	70.043
370.648	70.0404
370.751	70.0434
370.867	70.0406
370.915	70.0382
371.132	70.0405
371.2	70.0433
371.268	70.0461
371.551	70.043
371.616	70.0405
371.702	70.0432
371.802	70.0457
371.986	70.0427
372.018	70.0396
372.066	70.0372
372.15	70.04
372.314	70.0376
372.399	70.0403
372.532	70.0375
372.684	70.0348
372.748	70.0326
372.866	70.0351
372.902	70.0377
372.999	70.0353
373.048	70.0327
373.2	70.0353
373.669	70.0327
373.701	70.0296
373.734	70.0272
373.836	70.0299
373.968	70.0276
374.151	70.0249
374.399	70.0226
374.448	70.0203
374.566	70.0229
374.682	70.0253
375.067	70.0276
375.284	70.0299
375.836	70.0272
375.936	70.0244
376.117	70.0216
376.483	70.0188
376.598	70.0165
376.883	70.0138
377.068	70.0163
377.149	70.0133
377.317	70.016
377.682	70.0134
377.751	70.0158
377.884	70.0128
378.037	70.0151
378.135	70.0128
379	70.0101
379.065	70.0077
379.15	70.0103
379.298	70.0075
379.416	70.0104
379.617	70.0129
379.766	70.0097
379.984	70.0061
380.016	70.0035
380.203	70.006
380.285	70.0032
380.351	70.0008
380.417	69.9981
380.532	70.0006
380.584	70.0033
380.732	70.001
380.899	69.9985
380.965	69.9963
381.132	69.9932
381.232	69.9962
381.285	69.9989
381.432	69.9964
381.533	69.999
381.566	70.0013
381.715	70.0039
381.833	70.0063
382.036	70.0038
382.085	70.0008
382.318	69.9983
382.469	69.9958
382.518	69.9935
382.701	69.996
382.814	69.9935
382.983	69.9963
383.1	69.9937
383.15	69.991
383.199	69.9885
383.35	69.9909
384.053	69.994
384.137	69.9913
384.169	69.988
384.201	69.9848
384.25	69.9825
384.718	69.9852
385.201	69.9879
385.3	69.9852
385.332	69.9826
385.485	69.9848
385.598	69.9825
385.7	69.9849
385.784	69.9872
386	69.9844
386.168	69.9866
386.268	69.9841
386.317	69.9814
386.486	69.9786
386.702	69.9762
386.851	69.9786
386.983	69.9753
387.031	69.9721
387.95	69.9746
388.234	69.9772
388.586	69.9748
388.636	69.9722
388.735	69.9699
388.951	69.9723
389.099	69.9699
389.516	69.9674
389.766	69.965
389.918	69.9674
390.435	69.9645
390.499	69.962
390.837	69.9597
391.182	69.9573
391.515	69.9549
391.681	69.9575
391.716	69.9604
391.751	69.9629
391.865	69.9605
392.002	69.9635
392.133	69.9609
392.568	69.9586
392.6	69.9558
392.851	69.9534
393.017	69.951
393.185	69.9533
393.282	69.9506
393.348	69.9479
393.482	69.9503
393.716	69.9474
393.998	69.9444
394.15	69.9472
394.569	69.9495
394.703	69.9468
394.802	69.9443
395.185	69.9471
395.382	69.9444
395.782	69.9416
396.081	69.9392
396.133	69.942
396.166	69.9443
396.467	69.9412
396.499	69.9386
396.6	69.9419
396.75	69.9383
396.985	69.9354
397.051	69.9331
397.184	69.9302
397.316	69.933
397.352	69.9353
397.465	69.9331
397.617	69.9304
397.818	69.9328
397.883	69.9303
398.018	69.9328
398.133	69.9298
398.181	69.927
398.248	69.9306
398.283	69.9333
398.449	69.9357
398.484	69.9384
398.536	69.9409
398.585	69.938
398.632	69.9349
398.9	69.9319
399.038	69.9345
399.135	69.932
399.252	69.9296
399.349	69.9271
399.434	69.9297
399.599	69.9272
399.816	69.9247
400.266	69.9222
400.434	69.9249
401.002	69.9222
401.368	69.9194
401.584	69.922
402.033	69.9194
402.201	69.9223
402.365	69.919
402.45	69.9215
402.684	69.9238
402.799	69.9215
402.901	69.9238
403.035	69.9202
403.068	69.9166
403.135	69.9142
403.452	69.9116
403.618	69.914
403.764	69.911
404.167	69.9073
404.198	69.9044
404.23	69.9021
404.315	69.9046
404.368	69.907
404.548	69.9104
404.584	69.913
404.784	69.9155
404.931	69.9131
405.035	69.9155
405.167	69.9129
405.401	69.9102
405.752	69.9128
405.834	69.9102
405.882	69.9078
406.349	69.9052
406.484	69.9028
406.533	69.9005
406.683	69.9031
406.733	69.9054
407.269	69.903
407.453	69.9003
407.503	69.8976
407.568	69.8953
407.618	69.8928
407.784	69.896
407.834	69.8983
408.414	69.8959
408.484	69.8989
408.518	69.9014
408.648	69.8987
408.866	69.9012
408.951	69.9041
409.083	69.9014
409.318	69.8984
409.366	69.8959
409.519	69.8982
409.687	69.8957
409.735	69.8934
409.799	69.8907
410.451	69.8879
410.515	69.8856
410.583	69.8893
410.765	69.8867
410.833	69.8897
411.067	69.8922
411.467	69.8897
411.587	69.8925
411.917	69.8903
412.181	69.888
412.6	69.8854
413.018	69.8877
413.552	69.8852
413.67	69.8827
413.768	69.8802
414.249	69.8776
414.801	69.8806
414.965	69.8782
415.016	69.8808
415.067	69.8834
415.15	69.8859
415.366	69.8831
415.519	69.8854
415.602	69.8825
415.633	69.8792
415.666	69.8766
415.785	69.8789
416.034	69.8766
416.167	69.8796
416.202	69.8825
416.317	69.8797
416.366	69.8769
416.532	69.8746
416.733	69.8717
416.781	69.8693
416.883	69.8718
417.032	69.8695
417.132	69.8719
417.202	69.8744
417.351	69.8772
417.484	69.8749
417.532	69.8717
417.635	69.874
417.784	69.8715
418.151	69.8687
418.333	69.8717
418.449	69.874
419.134	69.8717
419.4	69.8744
419.501	69.8767
419.719	69.8743
419.802	69.8713
419.852	69.8683
419.951	69.8657
420.9	69.8627
420.933	69.8604
421.084	69.8638
421.199	69.8614
421.317	69.8646
421.433	69.8672
421.551	69.8695
421.785	69.8728
421.885	69.8705
421.934	69.8669
422.335	69.8644
422.599	69.8621
423.065	69.8598
423.332	69.8574
423.416	69.8599
423.469	69.8623
423.799	69.8597
423.884	69.8624
424.018	69.8593
424.05	69.8561
424.301	69.8539
424.601	69.8565
425.283	69.859
425.733	69.8613
425.899	69.8587
425.983	69.861
426.135	69.8585
426.387	69.8558
426.452	69.8534
426.518	69.8505
426.684	69.8532
426.816	69.8509
427.184	69.8481
427.216	69.8459
427.384	69.8485
427.499	69.846
427.617	69.8487
428.016	69.8512
428.051	69.8542
428.185	69.8507
428.217	69.8482
428.569	69.8505
428.65	69.8479
428.801	69.8505
429.052	69.8527
429.133	69.8504
429.284	69.8479
429.332	69.8449
429.5	69.8478
429.865	69.8454
429.95	69.8482
430.034	69.846
430.098	69.8434
430.167	69.8458
430.202	69.8483
430.286	69.8458
430.317	69.8434
430.367	69.8405
430.487	69.8428
430.568	69.8404
430.833	69.8378
431.266	69.8405
431.317	69.8432
431.45	69.8409
431.499	69.8384
431.601	69.8409
431.815	69.8439
431.867	69.8464
432.453	69.8437
432.536	69.8408
432.619	69.8383
432.768	69.8353
432.935	69.8385
432.985	69.841
433.035	69.8386
433.099	69.8361
433.132	69.8338
433.75	69.8312
433.95	69.8335
434.034	69.8359
434.25	69.8328
434.403	69.8356
434.484	69.8323
434.533	69.8295
434.619	69.832
434.983	69.8297
435.05	69.8326
435.102	69.8351
435.383	69.8327
435.648	69.8301
435.75	69.8331
435.899	69.8303
436.016	69.8327
436.234	69.8356
436.366	69.8319
436.585	69.8292
436.617	69.8268
437.002	69.824
437.067	69.8215
437.167	69.824
437.235	69.8265
437.316	69.8234
437.684	69.821
438.134	69.8235
438.2	69.8269
438.317	69.83
438.483	69.8276
438.551	69.8302
438.686	69.8272
438.718	69.8241
438.751	69.8217
438.886	69.8242
439.085	69.8216
439.269	69.8243
439.449	69.8221
439.751	69.8197
439.784	69.8174
439.816	69.8151
439.864	69.8121
439.966	69.8148
440.115	69.8171
440.184	69.8195
440.418	69.8221
440.517	69.8194
440.686	69.8221
440.768	69.819
440.817	69.8163
440.969	69.8139
441.233	69.8107
441.334	69.813
441.386	69.8154
441.833	69.8178
441.949	69.8149
442.119	69.8172
442.432	69.8148
442.55	69.8181
442.648	69.8157
442.767	69.8192
442.884	69.8167
442.917	69.8145
443.135	69.812
443.185	69.8092
443.366	69.8069
443.45	69.8098
443.632	69.8075
444.05	69.8051
444.451	69.808
444.551	69.8102
444.868	69.8128
445.085	69.8104
445.319	69.8077
445.368	69.8052
445.534	69.8076
445.698	69.8053
446.735	69.808
446.784	69.8057
447.051	69.803
447.084	69.8004
447.253	69.8029
447.47	69.7996
447.533	69.7967
447.652	69.7994
447.781	69.7966
447.9	69.7991
448.216	69.7964
448.316	69.7992
448.35	69.8029
448.498	69.7994
448.635	69.802
448.835	69.8053
448.965	69.8028
449.051	69.8054
449.184	69.8019
449.25	69.7994
449.667	69.7966
449.882	69.7938
450.333	69.7914
450.518	69.7937
450.615	69.7915
450.717	69.7942
451.436	69.7917
451.818	69.7944
451.982	69.7917
452.399	69.789
452.632	69.7864
452.749	69.7895
452.8	69.7925
452.95	69.7952
453.068	69.7922
453.115	69.7886
453.235	69.7915
453.384	69.7887
453.586	69.7864
453.652	69.7835
453.784	69.781
453.917	69.7833
454.217	69.7805
454.634	69.7837
454.798	69.7809
454.883	69.7839
454.952	69.7866
455.1	69.7899
455.249	69.7875
455.517	69.7849
455.752	69.7822
455.885	69.7794
456.068	69.7825
456.198	69.7798
456.317	69.7823
456.415	69.7791
456.567	69.7768
457.2	69.7794
457.568	69.7764
457.651	69.774
458.382	69.7764
458.699	69.7737
458.834	69.7763
459.319	69.7787
459.432	69.7763
459.651	69.7734
459.683	69.7708
460.116	69.7682
460.252	69.771
460.35	69.7688
460.751	69.7662
460.799	69.7638
460.934	69.766
461.183	69.7687
461.367	69.771
461.669	69.7737
461.767	69.7712
462.052	69.7685
462.119	69.7656
462.351	69.7687
462.499	69.7661
462.565	69.7635
463.166	69.7605
463.35	69.7635
463.483	69.7666
463.651	69.764
463.868	69.7614
464.036	69.7589
464.084	69.7565
464.134	69.7541
464.401	69.7567
464.467	69.759
465.135	69.7614
465.233	69.759
465.551	69.7618
465.819	69.764
465.903	69.7605
465.934	69.7577
465.966	69.7549
466.069	69.7578
466.352	69.755
466.416	69.7522
466.648	69.7497
466.783	69.752
467.051	69.7493
467.098	69.7465
467.2	69.7499
467.252	69.7528
467.333	69.7499
467.365	69.7471
467.45	69.7497
467.535	69.7526
467.599	69.7501
467.683	69.7529
467.935	69.7553
468.051	69.752
468.083	69.7495
468.204	69.7519
468.367	69.7495
468.617	69.7522
469.184	69.7493
469.249	69.7464
469.601	69.7493
469.667	69.7517
469.834	69.7491
470.202	69.7464
470.303	69.7441
470.518	69.7416
470.718	69.7442
470.784	69.7412
470.883	69.7384
471.065	69.7416
471.582	69.7442
471.634	69.7469
471.868	69.7497
471.951	69.7471
472.015	69.7446
472.084	69.747
472.136	69.7496
472.218	69.7472
472.267	69.7447
472.452	69.7423
472.637	69.7394
472.835	69.7421
472.932	69.7396
473.133	69.7372
473.414	69.7348
473.5	69.7373
473.648	69.7345
473.75	69.7381
473.785	69.7405
474.083	69.7381
474.302	69.7356
474.366	69.7329
474.469	69.7353
474.952	69.738
475.115	69.7358
475.549	69.7332
476.016	69.7355
476.267	69.7383
476.318	69.7407
476.419	69.7379
476.469	69.7344
476.519	69.7319
476.703	69.7295
476.8	69.7268
476.984	69.7295
477.165	69.7266
477.55	69.7239
477.632	69.7214
477.7	69.7241
477.848	69.7218
477.933	69.725
477.967	69.7274
478.1	69.7297
478.384	69.7324
478.436	69.7349
478.518	69.7324
478.567	69.7292
478.785	69.7268
479.248	69.7244
479.682	69.7216
480.102	69.724
480.415	69.7213
480.483	69.7239
480.667	69.721
480.869	69.7184
480.902	69.7161
481.116	69.7138
481.2	69.7161
481.251	69.7185
482.082	69.716
482.166	69.7187
482.217	69.7214
482.333	69.7238
482.533	69.7214
482.735	69.7186
482.769	69.7163
483.036	69.7136
483.102	69.7104
483.717	69.7081
483.833	69.705
483.983	69.7075
484.267	69.7102
484.485	69.7126
484.566	69.7094
484.668	69.712
484.818	69.7091
484.866	69.7066
484.935	69.7091
485.284	69.7063
485.684	69.7088
485.918	69.7055
485.982	69.7031
486.084	69.7061
486.216	69.7033
486.334	69.7057
486.499	69.7033
486.584	69.7056
486.683	69.703
486.935	69.6998
487.053	69.6972
487.184	69.6944
487.519	69.6967
487.617	69.694
487.849	69.6913
488.397	69.6945
488.432	69.6971
488.467	69.6995
488.501	69.7029
488.717	69.7006
488.868	69.7028
488.97	69.7006
489.019	69.6972
489.069	69.6949
489.219	69.6925
489.27	69.6899
489.367	69.6875
489.551	69.6897
489.716	69.6869
489.782	69.6843
489.948	69.6867
490.117	69.6834
490.198	69.6807
490.25	69.6837
490.302	69.6865
490.399	69.6831
490.551	69.6857
490.833	69.6827
490.985	69.6865
491.117	69.6834
491.55	69.681
491.685	69.6839
492.032	69.6815
492.249	69.6789
492.401	69.6818
492.499	69.6786
492.548	69.6754
492.599	69.6776
492.633	69.6802
492.669	69.6827
492.983	69.6796
493.218	69.6769
493.468	69.6741
493.636	69.6715
493.716	69.6692
493.801	69.6723
493.965	69.6691
494.116	69.6714
494.216	69.6691
494.501	69.6718
494.649	69.669
494.784	69.6725
494.901	69.6752
495.336	69.6719
495.401	69.6694
495.983	69.667
496.384	69.6646
496.416	69.6622
496.465	69.6597
496.8	69.6626
497.165	69.6599
497.251	69.6627
497.434	69.66
497.586	69.6575
497.651	69.655
497.951	69.658
498.432	69.6605
498.616	69.6579
498.814	69.6554
498.899	69.6589
498.934	69.6613
499.169	69.6637
499.234	69.6603
499.298	69.6576
499.384	69.6602
499.501	69.6577
499.736	69.6543
499.768	69.6518
499.817	69.6494
500.084	69.6524
500.232	69.6502
500.282	69.6475
500.9	69.6445
500.948	69.6416
501.066	69.6441
501.149	69.6467
501.216	69.6492
501.301	69.6517
501.502	69.6541
501.653	69.6512
501.919	69.6488
501.968	69.646
502.168	69.6488
502.499	69.6464
502.667	69.6441
502.732	69.6417
502.833	69.644
502.884	69.6468
502.967	69.6437
503.015	69.641
503.134	69.6432
503.318	69.6455
503.449	69.6431
503.684	69.6405
503.734	69.6376
503.869	69.6401
503.985	69.6378
504.102	69.6354
504.701	69.638
504.816	69.6355
504.882	69.6331
504.933	69.6363
504.985	69.6387
505.115	69.6364
505.183	69.639
505.451	69.6415
505.785	69.6384
505.817	69.636
506.219	69.6337
506.484	69.6306
506.816	69.6283
506.95	69.6261
507.316	69.6284
507.384	69.6309
507.601	69.6286
507.751	69.6312
507.901	69.6283
507.968	69.6259
508.152	69.6235
508.301	69.6261
508.35	69.6288
508.451	69.6326
508.567	69.6301
508.616	69.6279
508.75	69.6252
508.901	69.6275
508.967	69.6253
509.048	69.6229
509.117	69.6251
509.4	69.6283
509.717	69.6257
509.782	69.6231
509.886	69.6258
509.968	69.6229
510.017	69.6206
510.353	69.6183
510.434	69.6156
510.585	69.6186
510.715	69.6159
510.932	69.6134
511.251	69.616
511.517	69.6185
511.683	69.6212
511.734	69.6241
512.037	69.6209
512.068	69.6182
512.116	69.6157
512.219	69.6184
512.385	69.6161
512.468	69.613
512.65	69.6161
512.702	69.619
512.783	69.6165
512.865	69.6141
512.95	69.6164
513.05	69.6141
513.116	69.6115
513.217	69.6089
513.499	69.6059
513.667	69.6085
513.9	69.6109
514.185	69.6085
514.235	69.6061
514.436	69.6035
514.701	69.6064
515.131	69.6091
515.884	69.6118
516	69.6091
516.135	69.6115
516.268	69.6082
516.317	69.6051
516.502	69.6022
516.684	69.5997
516.833	69.602
517.368	69.5994
517.415	69.5969
517.569	69.5995
517.665	69.5967
517.766	69.5997
517.836	69.6021
518.017	69.6045
518.166	69.6019
518.268	69.6044
518.4	69.6019
518.485	69.6042
518.668	69.601
518.786	69.5986
518.951	69.6017
519.116	69.5991
519.331	69.5966
519.783	69.5941
519.95	69.5971
520.469	69.5947
520.518	69.5921
520.835	69.5891
520.9	69.5866
521.068	69.5891
521.433	69.5917
521.866	69.5941
521.951	69.5972
522.099	69.5948
522.184	69.5973
522.552	69.5947
522.584	69.5913
522.633	69.5884
523.249	69.586
523.668	69.5835
523.731	69.581
523.816	69.5837
523.886	69.5861
523.965	69.5831
524.083	69.5864
524.951	69.5836
525.3	69.586
525.415	69.5837
525.549	69.5861
525.85	69.5837
526.082	69.5814
526.234	69.5837
526.785	69.5811
526.92	69.5787
527.052	69.5762
527.334	69.5785
527.466	69.5757
527.931	69.5734
528	69.5756
528.233	69.5785
528.284	69.5809
528.884	69.5785
529.252	69.576
529.781	69.5735
529.95	69.5713
530.031	69.5687
530.116	69.5715
530.584	69.5739
530.732	69.5712
530.835	69.5737
530.935	69.5714
530.967	69.569
531.601	69.5714
532.083	69.5688
532.483	69.5714
532.936	69.5737
533.053	69.5705
533.119	69.5677
533.186	69.5654
533.285	69.563
533.434	69.5603
533.602	69.5628
533.749	69.5599
534.034	69.5627
534.167	69.5596
534.199	69.5572
534.567	69.56
534.618	69.5629
534.785	69.5652
535.151	69.5622
535.385	69.5597
535.718	69.5621
535.849	69.5596
536.267	69.5568
536.299	69.5546
536.549	69.5517
536.815	69.5542
536.849	69.5564
536.884	69.5591
537	69.5566
537.049	69.5538
537.118	69.5571
537.251	69.5545
537.284	69.5513
537.502	69.5482
537.7	69.5455
537.833	69.5479
538.266	69.5504
538.783	69.5533
538.867	69.5555
539.134	69.5533
539.351	69.5509
539.653	69.5485
539.735	69.5462
540.033	69.5438
540.401	69.5409
540.482	69.5386
540.601	69.5414
541.034	69.5438
541.085	69.5464
541.182	69.5435
541.302	69.5468
541.435	69.5439
542.132	69.541
542.25	69.5439
542.535	69.5414
542.566	69.5386
542.614	69.5356
542.683	69.5383
542.717	69.5411
542.832	69.5384
542.951	69.5408
543.003	69.5432
543.116	69.5407
543.333	69.5376
543.567	69.5349
543.818	69.5324
543.984	69.5301
544.118	69.5325
544.282	69.5299
544.834	69.5323
545.101	69.5349
545.168	69.538
545.351	69.5357
545.4	69.5334
545.5	69.5358
545.82	69.5335
545.886	69.5312
545.936	69.5286
546.383	69.5259
546.733	69.5233
546.782	69.5203
546.901	69.5232
547.032	69.5209
547.133	69.5232
547.249	69.5255
547.334	69.5285
547.499	69.5256
547.735	69.5232
548.152	69.5209
548.301	69.5233
548.665	69.5208
548.983	69.5234
549.036	69.5259
549.116	69.5232
549.165	69.5203
549.233	69.5225
549.518	69.5254
549.802	69.523
549.834	69.5207
549.867	69.5178
549.97	69.5204
550.085	69.5171
550.152	69.5146
550.284	69.5121
550.468	69.5146
550.884	69.5121
550.95	69.5098
551.016	69.5073
551.083	69.5101
551.168	69.5124
551.233	69.51
551.367	69.5131
551.417	69.5156
551.516	69.5185
551.767	69.521
551.92	69.5184
551.969	69.5157
552.07	69.5133
552.351	69.5109
552.485	69.5141
552.6	69.5119
552.649	69.5089
553.017	69.5062
553.098	69.5038
553.167	69.5065
553.451	69.5089
553.75	69.5066
553.885	69.5097
554.001	69.5063
554.034	69.5034
554.286	69.5006
554.386	69.4982
554.585	69.5008
554.982	69.5032
555.432	69.5008
555.516	69.5044
555.569	69.5071
555.769	69.5096
555.851	69.5071
555.899	69.5031
556.151	69.5008
556.369	69.498
556.402	69.4956
556.468	69.4927
556.518	69.4893
556.667	69.4923
556.701	69.4953
556.866	69.4923
557.25	69.4893
557.299	69.487
557.418	69.49
557.516	69.4874
557.7	69.4897
557.8	69.4926
558.102	69.4949
558.202	69.4924
558.586	69.4895
558.667	69.4871
558.785	69.4899
559.268	69.4872
559.317	69.4845
559.466	69.4873
559.632	69.485
559.951	69.4879
560.099	69.4856
560.185	69.4882
560.286	69.485
560.319	69.4823
560.352	69.4798
560.735	69.4776
560.783	69.4753
561.099	69.4786
561.3	69.4811
561.466	69.4785
561.567	69.4812
561.732	69.4787
561.799	69.481
561.885	69.4833
561.949	69.4809
562.103	69.4835
562.199	69.4813
562.267	69.4836
562.401	69.4806
562.434	69.4778
562.685	69.4755
563.1	69.473
563.165	69.4706
563.984	69.4731
564.3	69.4707
564.367	69.473
564.519	69.4706
564.753	69.4679
564.867	69.4654
565.05	69.4685
565.1	69.471
565.616	69.4681
565.882	69.4657
566	69.4686
566.184	69.471
566.35	69.4683
566.536	69.4653
566.568	69.4628
566.616	69.4601
566.736	69.4629
567.002	69.4603
567.049	69.4578
567.134	69.4601
567.186	69.4627
567.283	69.4602
567.532	69.4575
567.716	69.455
567.867	69.458
568.248	69.4604
568.317	69.4631
568.551	69.4659
568.701	69.4624
568.733	69.4593
569.168	69.4561
569.768	69.4532
569.833	69.4506
570.217	69.4534
570.703	69.4557
570.803	69.4523
570.852	69.4494
570.953	69.4468
571.068	69.4445
571.284	69.4471
571.335	69.4498
571.749	69.4521
571.917	69.4498
572.182	69.4468
572.284	69.4494
572.335	69.4521
572.617	69.4493
572.769	69.4518
572.884	69.4486
572.934	69.4464
573.102	69.4439
573.286	69.4415
573.349	69.4386
573.451	69.4417
573.598	69.4386
574.168	69.4417
574.283	69.4389
574.315	69.4364
574.4	69.4391
574.566	69.4414
574.618	69.4439
574.869	69.4467
574.969	69.4444
575.001	69.4421
575.369	69.4397
575.45	69.4373
575.551	69.4402
575.585	69.4425
575.7	69.4396
575.732	69.4373
575.949	69.4347
576.432	69.432
576.535	69.4347
576.601	69.437
576.85	69.4344
577.02	69.4368
577.086	69.4344
577.119	69.4321
577.452	69.4295
577.833	69.4271
578.334	69.4299
578.55	69.4322
578.601	69.4347
578.948	69.4324
579.035	69.4355
579.169	69.4332
579.201	69.4306
579.269	69.4283
579.618	69.4259
579.866	69.4235
580.316	69.4202
580.468	69.4228
580.582	69.4198
580.7	69.4222
580.768	69.4247
581.049	69.4218
581.151	69.4252
581.301	69.4225
581.868	69.4252
581.983	69.4225
582.049	69.42
582.483	69.4176
582.666	69.4152
582.782	69.4181
582.9	69.4208
583.001	69.4231
583.084	69.4207
583.15	69.4177
583.27	69.4204
583.369	69.4171
583.418	69.4142
583.619	69.4117
583.735	69.4091
584.05	69.4115
584.233	69.409
584.467	69.4065
584.634	69.4091
584.917	69.4115
585.099	69.4146
585.167	69.4168
585.301	69.4193
585.435	69.4162
585.467	69.4137
585.752	69.4114
585.837	69.4091
585.885	69.4067
586.18	69.4042
586.266	69.4069
586.449	69.4046
586.551	69.4019
586.615	69.3997
586.717	69.4024
586.769	69.4053
586.866	69.4019
587.035	69.4044
587.435	69.4069
587.552	69.4036
587.584	69.4003
587.617	69.3976
588.018	69.3999
588.134	69.4022
588.315	69.3999
588.416	69.4027
588.716	69.4003
589.133	69.3973
589.149	69.3946
589.164	69.3903
589.179	69.3843
589.192	69.376
589.204	69.3654
589.215	69.3531
589.225	69.3385
589.234	69.3218
589.241	69.3032
589.248	69.2824
589.253	69.2603
589.257	69.2368
589.26	69.2123
589.263	69.1864
589.265	69.1602
589.267	69.1338
589.268	69.1072
589.269	69.0806
589.27	69.0543
589.271	69.0283
589.271	69.0024
589.272	68.9762
589.272	68.9509
589.273	68.9266
589.273	68.9031
589.273	68.8796
589.273	68.8572
589.273	68.8357
589.273	68.8143
589.273	68.7936
589.274	68.7736
589.274	68.7542
589.274	68.7349
589.274	68.7158
589.274	68.6973
589.274	68.6794
589.274	68.6616
589.274	68.6438
589.274	68.6267
589.274	68.6097
589.274	68.5934
589.274	68.577
589.274	68.5614
589.274	68.5465
589.274	68.5316
589.274	68.5168
589.274	68.5024
589.274	68.4882
589.274	68.4741
589.274	68.46
589.274	68.446
589.274	68.4329
589.274	68.4202
589.274	68.4074
589.274	68.3956
589.274	68.3835
589.274	68.3717
589.274	68.3599
589.274	68.3483
589.274	68.3372
589.274	68.3265
589.274	68.3154
589.274	68.3044
589.274	68.2936
589.274	68.2828
589.274	68.2724
589.274	68.2618
589.274	68.2517
589.274	68.2417
589.274	68.232
589.274	68.2225
589.274	68.2134
589.274	68.2043
589.274	68.1951
589.274	68.1857
589.274	68.1765
589.274	68.1678
589.274	68.1592
589.274	68.1508
589.274	68.1425
589.274	68.1338
589.274	68.1255
589.274	68.1169
589.274	68.1087
589.274	68.1009
589.274	68.0932
589.274	68.0855
589.274	68.0778
589.274	68.0703
589.274	68.0628
589.274	68.0556
589.274	68.0482
589.274	68.041
589.274	68.0338
589.274	68.0265
589.274	68.0198
589.274	68.0129
589.274	68.0063
589.274	67.9994
589.274	67.9923
589.274	67.9857
589.274	67.9793
589.274	67.9728
589.274	67.9667
589.274	67.9607
589.274	67.9541
589.274	67.9479
589.274	67.9417
589.274	67.9355
589.274	67.9297
589.274	67.9237
589.274	67.9176
589.274	67.9117
589.274	67.9055
589.274	67.8996
589.274	67.8936
589.274	67.8876
589.274	67.8824
589.274	67.8763
589.274	67.8708
589.274	67.8655
589.274	67.8603
589.274	67.855
589.274	67.8496
589.274	67.8441
589.274	67.8393
589.274	67.834
589.274	67.8284
589.274	67.8238
589.274	67.8191
589.274	67.8141
589.274	67.809
589.274	67.8041
589.274	67.7995
589.274	67.7947
589.274	67.7898
589.274	67.7853
589.274	67.7808
589.274	67.7761
589.274	67.771
589.274	67.7663
589.274	67.7617
589.274	67.7571
589.274	67.7528
589.274	67.7482
589.274	67.7437
589.274	67.7391
589.274	67.7346
589.274	67.7303
589.274	67.7263
589.274	67.7216
589.274	67.7172
589.274	67.7129
589.274	67.7085
589.274	67.7043
589.274	67.7001
589.274	67.696
589.274	67.6919
589.274	67.6878
589.274	67.6838
589.274	67.6806
589.274	67.6767
589.274	67.6727
589.274	67.6686
589.274	67.6649
589.274	67.6613
589.274	67.6577
589.274	67.6539
589.274	67.6502
589.274	67.6462
589.274	67.6425
589.274	67.6387
589.274	67.6351
589.274	67.6319
589.274	67.6283
589.274	67.625
589.274	67.621
589.274	67.6171
589.274	67.6136
589.274	67.6101
589.274	67.606
589.274	67.6025
589.274	67.5991
589.274	67.5956
589.274	67.5921
589.274	67.5881
589.274	67.5846
589.274	67.5817
589.274	67.5782
589.274	67.575
589.274	67.5724
589.274	67.5697
589.274	67.5667
589.274	67.5633
589.274	67.5601
589.274	67.5571
589.274	67.5544
589.274	67.5512
589.274	67.5484
589.274	67.5455
589.274	67.5416
589.274	67.538
589.274	67.5348
589.274	67.5318
589.274	67.5285
589.274	67.5254
589.274	67.5226
589.274	67.5197
589.274	67.5165
589.274	67.5132
589.274	67.5107
589.274	67.5078
589.274	67.505
589.274	67.502
589.274	67.4975
589.274	67.4945
589.274	67.4918
589.274	67.489
589.274	67.4862
589.274	67.4834
589.274	67.4809
589.274	67.478
589.274	67.475
589.274	67.4721
589.274	67.4689
589.274	67.4664
589.274	67.4635
589.274	67.461
589.274	67.4586
589.274	67.4561
589.274	67.4531
589.274	67.4506
589.274	67.448
589.274	67.4452
589.274	67.4426
589.274	67.4397
589.274	67.4373
589.274	67.4348
589.274	67.432
589.274	67.4294
589.274	67.4268
589.274	67.4244
589.274	67.42
589.274	67.4175
589.274	67.4148
589.274	67.4121
589.274	67.4096
589.274	67.407
589.274	67.4046
589.274	67.4003
589.274	67.3976
589.274	67.3949
589.274	67.3906
589.274	67.3864
589.274	67.3841
589.274	67.3793
589.274	67.3749
589.274	67.3703
589.274	67.3679
589.274	67.3653
589.274	67.3629
589.274	67.3586
589.274	67.3545
589.274	67.3507
589.274	67.347
589.274	67.3432
589.274	67.341
589.274	67.337
589.274	67.3346
589.274	67.3309
589.274	67.3263
589.274	67.3241
589.274	67.3201
589.274	67.3178
589.274	67.314
589.274	67.3113
589.274	67.3074
589.274	67.3037
589.274	67.2997
589.274	67.2973
589.274	67.2933
589.274	67.2898
589.274	67.2874
589.274	67.2836
589.274	67.2794
589.274	67.2758
589.274	67.2718
589.274	67.2678
589.274	67.2641
589.274	67.2609
589.274	67.2576
589.274	67.2543
589.274	67.2507
589.274	67.2476
589.274	67.2438
589.274	67.2405
589.274	67.2367
589.274	67.2334
589.274	67.2292
589.274	67.2258
589.274	67.222
589.274	67.2186
589.274	67.2153
589.274	67.2124
589.274	67.2091
589.274	67.2055
589.274	67.2022
589.274	67.1988
589.274	67.1954
589.274	67.1927
589.274	67.1895
589.274	67.1864
589.274	67.1834
589.274	67.1801
589.274	67.1767
589.274	67.1737
589.274	67.1714
589.274	67.1687
589.274	67.1661
589.274	67.1632
589.274	67.1606
589.274	67.1576
589.274	67.155
589.274	67.1525
589.274	67.1498
589.274	67.1471
589.274	67.1439
589.274	67.1417
589.274	67.1387
589.274	67.1359
589.274	67.1331
589.274	67.1305
589.274	67.127
589.274	67.1236
589.274	67.1205
589.274	67.1177
589.274	67.1136
589.274	67.1106
589.274	67.1067
589.274	67.104
589.274	67.1008
589.274	67.0984
589.274	67.096
589.274	67.0937
589.274	67.0907
589.273	67.0875
589.273	67.0848
589.273	67.0818
589.273	67.0789
589.273	67.0765
589.273	67.0728
589.273	67.0702
589.273	67.0668
589.273	67.064
589.274	67.0618
589.273	67.0595
589.274	67.0567
589.274	67.0538
589.274	67.0502
589.274	67.0472
589.274	67.0449
589.274	67.0421
589.274	67.0394
589.274	67.0363
589.274	67.0332
589.274	67.0309
589.274	67.0277
589.274	67.0254
589.274	67.0222
589.274	67.0198
589.274	67.0164
589.274	67.0134
589.274	67.0106
589.274	67.0077
589.274	67.0051
589.274	67.0023
589.274	66.9994
589.274	66.9969
589.274	66.9943
589.274	66.9916
589.274	66.989
589.274	66.9859
589.274	66.9831
589.274	66.9807
589.274	66.9776
589.274	66.9743
589.274	66.9709
589.274	66.9682
589.274	66.9651
589.274	66.9629
589.274	66.9596
589.274	66.9564
589.274	66.9536
589.274	66.9507
589.274	66.948
589.274	66.9453
589.273	66.9426
589.274	66.9396
589.274	66.9367
589.274	66.9343
589.274	66.9316
589.274	66.9288
589.274	66.9257
589.274	66.9227
589.274	66.9196
589.274	66.9172
589.274	66.9146
589.274	66.9123
589.274	66.9092
589.274	66.9066
589.274	66.9036
589.274	66.9007
589.274	66.8985
589.274	66.8948
589.274	66.892
589.274	66.8896
589.274	66.8872
589.274	66.8839
589.274	66.8815
589.274	66.8791
589.274	66.8768
589.274	66.8739
589.274	66.8714
589.274	66.8691
589.274	66.8661
589.274	66.8637
589.274	66.8614
589.274	66.8585
589.274	66.8555
589.274	66.8529
589.274	66.8502
589.274	66.8478
589.274	66.8449
589.274	66.8424
589.274	66.8391
589.274	66.8363
589.274	66.8335
589.274	66.8307
589.274	66.8282
589.274	66.8258
589.274	66.8227
589.274	66.8202
589.274	66.8176
589.274	66.8149
589.274	66.812
589.274	66.8092
589.274	66.8068
589.274	66.8043
589.274	66.8013
589.274	66.7989
589.274	66.7966
589.274	66.7941
589.274	66.7918
589.274	66.7893
589.274	66.7868
589.274	66.7838
589.274	66.7815
589.274	66.7787
589.274	66.7764
589.274	66.7735
589.274	66.7708
589.274	66.7684
589.274	66.7658
589.274	66.7628
589.273	66.7599
589.273	66.7573
589.274	66.7542
589.274	66.7514
589.274	66.749
589.274	66.7466
589.274	66.744
589.274	66.7413
589.274	66.7387
589.274	66.7361
589.274	66.7338
589.274	66.7311
589.274	66.7285
589.274	66.7257
589.274	66.7229
589.274	66.7205
589.274	66.7182
589.274	66.7158
589.274	66.7132
589.274	66.7103
589.274	66.7077
589.274	66.705
589.274	66.7024
589.273	66.6991
589.274	66.6963
589.274	66.6939
589.274	66.6907
589.274	66.6884
589.273	66.6853
589.274	66.6825
589.274	66.6801
589.274	66.6778
589.274	66.6754
589.274	66.6731
589.274	66.6706
589.274	66.6683
589.274	66.6653
589.274	66.6629
589.274	66.6603
589.274	66.658
589.274	66.6557
589.274	66.6534
589.274	66.651
589.273	66.648
589.274	66.6451
589.274	66.6427
589.274	66.6402
589.273	66.6375
589.274	66.6347
589.274	66.6323
589.274	66.6293
589.274	66.6264
589.274	66.6237
589.274	66.6208
589.274	66.6183
589.274	66.6157
589.274	66.6133
589.273	66.6103
589.274	66.6079
589.273	66.6052
589.273	66.6026
589.274	66.6003
589.274	66.598
589.274	66.5952
589.274	66.5929
589.274	66.59
589.274	66.5874
589.274	66.5846
589.274	66.5823
589.273	66.5799
589.273	66.5789
589.273	66.5789
